"Wavelength (nm)","σ (cm^2)"
20.4,5.0063898064e-18
20.6,5.0935788458e-18
20.8,5.1848127377e-18
21,5.2788922913e-18
21.2,5.4425605098e-18
21.4,5.5969598265e-18
21.6,5.6047991926e-18
21.8,5.6358493902e-18
22,5.7407932505e-18
22.2,5.842121808e-18
22.4,5.9320242998e-18
22.6,6.0292134574e-18
22.8,6.1429189839e-18
23,6.2503948935e-18
23.2,6.3257451232e-18
23.4,6.4028712856e-18
23.6,6.5061058921e-18
23.8,6.6110049681e-18
24,6.7256076337e-18
24.2,6.8444386904e-18
24.4,6.95290647e-18
24.6,7.0474537328e-18
24.8,7.1426248136e-18
25,7.1974374488e-18
25.2,7.2713337276e-18
25.4,7.386329467e-18
25.6,7.5334220348e-18
25.8,7.6511583821e-18
26,7.6851125348e-18
26.2,7.7759803997e-18
26.4,7.9251756263e-18
26.6,7.9081473082e-18
26.8,8.0137884993e-18
27,8.1317632108e-18
27.2,8.0970055257e-18
27.4,8.2489652534e-18
27.6,8.4399563649e-18
27.8,8.5486745343e-18
28,8.6501743696e-18
28.2,8.7536290096e-18
28.4,8.8967649188e-18
28.6,8.9992920657e-18
28.8,9.0579005392e-18
29,9.2184531585e-18
29.2,9.3865974357e-18
29.4,9.4537968429e-18
29.6,9.4332160161e-18
29.8,9.281980362e-18
30,9.3898027182e-18
30.2,9.6605784473e-18
30.4,9.7951847238e-18
30.6,9.8954490572e-18
30.8,1.0007473865e-17
31,1.0121478529e-17
31.2,1.0233411633e-17
31.4,1.033807341e-17
31.6,1.0305135381e-17
31.8,1.0284068393e-17
32,1.051015235e-17
32.2,1.0741206514e-17
32.4,1.0818798305e-17
32.6,1.0893974065e-17
32.8,1.0986184768e-17
33,1.1081823968e-17
33.2,1.1162248484e-17
33.4,1.1235925477e-17
33.6,1.1294757214e-17
33.8,1.1335374286e-17
34,1.1409508589e-17
34.2,1.1663926275e-17
34.4,1.1924017155e-17
34.6,1.1993024392e-17
34.8,1.2013345114e-17
35,1.2098246122e-17
35.2,1.2293151809e-17
35.4,1.2491197473e-17
35.6,1.2521209145e-17
35.8,1.252800752e-17
36,1.2579074211e-17
36.2,1.2728560338e-17
36.4,1.2879822916e-17
36.6,1.2947325382e-17
36.8,1.2973086102e-17
37,1.2998898077e-17
37.2,1.3098225921e-17
37.4,1.3202305594e-17
37.6,1.331581572e-17
37.8,1.3481515572e-17
38,1.3649277366e-17
38.2,1.3783084041e-17
38.4,1.38124604e-17
38.6,1.3841899369e-17
38.8,1.3891372541e-17
39,1.3994081556e-17
39.2,1.4097549973e-17
39.4,1.4194038495e-17
39.6,1.4259978571e-17
39.8,1.432622498e-17
40,1.4393581239e-17
40.2,1.4492090583e-17
40.4,1.4591274123e-17
40.6,1.4691136472e-17
40.8,1.489656372e-17
41,1.514100991e-17
41.2,1.5389467356e-17
41.4,1.5584225706e-17
41.6,1.5677824673e-17
41.8,1.5771985795e-17
42,1.586671245e-17
42.2,1.5971971129e-17
42.4,1.607959808e-17
42.6,1.6187950275e-17
42.8,1.6297784972e-17
43,1.6410842664e-17
43.2,1.6524684638e-17
43.4,1.6639316333e-17
43.6,1.675885383e-17
43.8,1.6883667333e-17
44,1.7009410399e-17
44.2,1.7136089951e-17
44.4,1.723937085e-17
44.6,1.7326944116e-17
44.8,1.7414962241e-17
45,1.7503427484e-17
45.2,1.7521706359e-17
45.4,1.7487751659e-17
45.6,1.7453862759e-17
45.8,1.742003953e-17
46,1.7435198452e-17
46.2,1.7524177802e-17
46.4,1.7613611252e-17
46.6,1.7703501119e-17
46.8,1.7791129879e-17
47,1.7841510942e-17
47.2,1.7892034676e-17
47.4,1.7942701482e-17
47.6,1.7993511768e-17
47.8,1.8092673184e-17
48,1.8229205088e-17
48.2,1.8366767297e-17
48.4,1.8505367585e-17
48.6,1.8645013785e-17
48.8,1.8664914644e-17
49,1.8670510867e-17
49.2,1.8676108767e-17
49.4,1.8681708346e-17
49.6,1.8690212709e-17
49.8,1.8787906987e-17
50,1.8886111916e-17
50.2,1.8984830164e-17
50.4,1.9084064416e-17
50.6,1.9183817368e-17
50.8,1.9347186241e-17
51,1.9513847646e-17
51.2,1.9681944714e-17
51.4,1.9851489812e-17
51.6,2.0022495412e-17
51.8,2.0093494644e-17
52,2.0121173805e-17
52.2,2.0148891095e-17
52.4,2.0176646567e-17
52.6,2.0204440271e-17
52.8,2.0236958986e-17
53,2.0287874836e-17
53.2,2.0338918789e-17
53.4,2.0390091168e-17
53.6,2.0441392296e-17
53.8,2.0492822497e-17
54,2.0547936245e-17
54.2,2.0607231418e-17
54.4,2.0666697699e-17
54.6,2.0726335582e-17
54.8,2.0786145562e-17
55,2.0846128136e-17
55.2,2.0914295656e-17
55.4,2.0991412441e-17
55.6,2.1068813576e-17
55.8,2.114650011e-17
56,2.1224473096e-17
56.2,2.130273359e-17
56.4,2.1379945275e-17
56.6,2.1452615476e-17
56.8,2.1525532681e-17
57,2.1598697732e-17
57.2,2.1672111469e-17
57.4,2.174577474e-17
57.6,2.181968839e-17
57.8,2.1863515729e-17
58,2.1892110698e-17
58.2,2.1920743065e-17
58.4,2.1949412881e-17
58.6,2.1978120194e-17
58.8,2.2006865052e-17
59,2.2035647505e-17
59.2,2.2080832939e-17
59.4,2.2130224441e-17
59.6,2.2179726424e-17
59.8,2.2229339135e-17
60,2.2279062822e-17
60.2,2.2328897734e-17
60.4,2.2378844119e-17
60.6,2.2450828275e-17
60.8,2.2537749124e-17
61,2.2625006496e-17
61.2,2.2712601695e-17
61.4,2.2800536028e-17
61.6,2.2888810809e-17
61.8,2.2977427355e-17
62,2.3062444592e-17
62.2,2.3051808627e-17
62.4,2.3041177566e-17
62.6,2.3030551409e-17
62.8,2.3019930152e-17
63,2.3009313793e-17
63.2,2.299870233e-17
63.4,2.2988095761e-17
63.6,2.2977209111e-17
63.8,2.2963510271e-17
64,2.2949819598e-17
64.2,2.2936137087e-17
64.4,2.2922462733e-17
64.6,2.2908796532e-17
64.8,2.2895138479e-17
65,2.2881488568e-17
65.2,2.2867846795e-17
65.4,2.2895322935e-17
65.6,2.2938400256e-17
65.8,2.2981558627e-17
66,2.30247982e-17
66.2,2.3068119128e-17
66.4,2.3111521564e-17
66.6,2.3155005661e-17
66.8,2.3198571572e-17
67,2.3242219453e-17
67.2,2.3203801883e-17
67.4,2.3157113344e-17
67.6,2.3110518747e-17
67.8,2.3064017904e-17
68,2.3017610626e-17
68.2,2.2971296723e-17
68.4,2.292507601e-17
68.6,2.2878948297e-17
68.8,2.2832913399e-17
69,2.2820805652e-17
69.2,2.2831327097e-17
69.4,2.2841853392e-17
69.6,2.2852384541e-17
69.8,2.2862920545e-17
70,2.2873461407e-17
70.2,2.2884007129e-17
70.4,2.2894557712e-17
70.6,2.290511316e-17
72.8,2.19848919e-17
75,2.0737861472e-17
77.4,1.9267582724e-17
79.8,1.8640226275e-17
82.6,1.8870672904e-17
85.4,2.0941908067e-17
88.4,2.1790466222e-17
91.8,2.1272676827e-17
95.2,1.8458497285e-17
99.2,1.3319832585e-17
99.4,1.4590554045e-17
99.6,1.5982503233e-17
99.8,1.7507245359e-17
100,1.7198762616e-17
100.2,1.6512524954e-17
100.4,1.7046431755e-17
100.6,1.346744253e-17
100.8,1.3488527641e-17
101,1.1073606304e-17
101.2,1.5285456902e-17
101.4,1.4851905131e-17
101.6,1.116691684e-17
101.8,1.0795671758e-17
102,1.1630102823e-17
102.2,1.2351475999e-17
102.4,1.3770038628e-17
102.6,1.596366061e-17
102.8,2.4011012084e-17
103,7.8062610011e-18
103.2,5.2536252707e-18
103.4,4.9598878527e-18
103.6,5.5535426484e-18
103.8,1.0431467683e-17
104,5.8967460066e-18
104.2,9.3771174255e-18
104.4,4.1341465153e-18
104.6,2.7877002115e-18
104.8,3.2732735135e-18
105,7.2663130421e-18
105.2,1.2053732218e-17
105.4,1.2833176644e-17
105.6,2.2517887632e-17
105.8,1.4718042536e-17
106,3.2786527231e-18
106.2,3.7243594992e-19
106.4,3.5226815499e-20
106.6,2.1662061992e-19
106.8,1.6354687851e-18
107,5.5258491148e-19
107.2,4.6258173999e-19
107.4,1.0522595401e-17
107.6,1.0499670091e-17
107.8,5.5863669127e-18
108,1.3826348878e-18
108.2,1.6403638325e-18
108.4,5.7616482301e-18
108.6,2.631625668e-18
108.8,2.0000147549e-18
109,8.4442299514e-18
109.2,3.6373374987e-18
109.4,7.8527507542e-19
109.6,3.0274026909e-19
109.8,4.5396530828e-18
110,6.0321383734e-19
110.2,8.1914544547e-19
110.4,1.1896947156e-18
110.6,1.1746217125e-18
110.8,4.0452066294e-18
111,4.740076052e-18
111.2,1.0576177256e-17
111.4,2.8669022613e-17
111.6,1.5199931206e-17
111.8,3.5342956162e-18
112,2.6047680704e-18
112.2,9.1106090938e-18
112.4,1.6193909102e-17
112.6,9.9035175519e-18
112.8,1.3688488211e-17
113,9.0608703905e-18
113.2,3.1883579815e-18
113.4,2.7805708006e-18
113.6,5.0925371981e-19
113.8,9.7316785861e-20
114,6.2057815696e-19
114.2,9.7739236453e-19
114.4,1.5393642582e-18
114.6,2.4244534799e-18
114.8,3.818443e-18
115,4.82756e-18
115.2,4.907734e-18
115.4,3.994266e-18
115.6,3.495922e-18
115.8,2.825691e-18
116,2.049472e-18
116.2,1.891689e-18
116.4,2.297014e-18
116.6,3.288051e-18
116.8,4.84694e-18
117,6.857986e-18
117.2,8.821095e-18
117.4,9.01133e-18
117.6,8.115314e-18
117.8,5.787907e-18
118,3.498851e-18
118.2,2.365768e-18
118.4,2.637333e-18
118.6,3.355119e-18
118.8,3.798932e-18
119,5.671685e-18
119.2,1.151799e-17
119.4,1.331463e-17
119.6,1.065863e-17
119.8,8.758844e-18
120,6.324255e-18
120.2,5.091814e-18
120.4,4.031384e-18
120.6,3.62479e-18
120.8,3.938003e-18
121,5.177884e-18
121.2,7.241944e-18
121.4,1.046309e-17
121.6,1.468517e-17
121.8,1.708612e-17
122,2.323284e-17
122.2,1.949914e-17
122.4,1.343283e-17
122.6,6.005842e-18
122.8,2.710114e-18
123,2.239994e-18
123.2,2.715302e-18
123.4,3.511996e-18
123.6,4.820137e-18
123.8,1.534236e-17
124,1.326476e-17
124.2,1.217976e-17
124.4,7.306627e-18
124.6,5.832932e-18
124.8,5.666656e-18
125,5.900108e-18
125.2,6.243017e-18
125.4,6.630484e-18
125.6,6.876314e-18
125.8,6.927695e-18
126,6.823531e-18
126.2,6.95758e-18
126.4,7.217713e-18
126.6,7.613629e-18
126.8,7.925763e-18
127,7.892331e-18
127.2,7.575663e-18
127.4,7.289359e-18
127.6,7.413687e-18
127.8,7.748559e-18
128,8.087357e-18
128.2,8.162901e-18
128.4,7.989811e-18
128.6,7.558571e-18
128.8,7.240247e-18
129,7.257113e-18
129.2,7.559688e-18
129.4,7.87315e-18
129.6,7.813398e-18
129.8,7.37686e-18
130,6.857309e-18
130.2,6.592564e-18
130.4,6.704313e-18
130.6,7.157723e-18
130.8,7.488967e-18
131,6.860349e-18
131.2,5.993838e-18
131.4,5.494668e-18
131.6,5.528946e-18
131.8,6.186731e-18
132,6.594059e-18
132.2,6.360127e-18
132.4,5.712116e-18
132.6,4.83456e-18
132.8,4.335042e-18
133,4.500465e-18
133.2,5.010808e-18
133.4,5.169686e-18
133.6,4.881357e-18
133.8,4.448573e-18
134,4.113189e-18
134.2,3.811407e-18
134.4,3.51746e-18
134.6,3.598222e-18
134.8,3.649195e-18
135,3.520218e-18
135.2,3.260756e-18
135.4,3.106856e-18
135.6,2.845437e-18
135.8,2.528674e-18
136,2.305237e-18
136.2,2.293711e-18
136.4,2.466565e-18
136.6,2.442381e-18
136.8,2.18598e-18
137,1.888053e-18
137.2,1.733604e-18
137.4,1.753709e-18
137.6,1.839756e-18
137.8,1.853865e-18
138,1.672828e-18
138.2,1.44407e-18
138.4,1.253988e-18
138.6,1.114458e-18
138.8,1.096145e-18
139,1.151763e-18
139.2,1.231841e-18
139.4,1.225791e-18
139.6,1.157147e-18
139.8,1.050372e-18
140,8.797719e-19
140.2,7.432155e-19
140.4,6.872328e-19
140.6,6.78622e-19
140.8,7.249205e-19
141,7.808073e-19
141.2,7.699172e-19
141.4,7.292449e-19
141.6,6.710711e-19
141.8,6.345131e-19
142,6.0641e-19
142.2,5.683768e-19
142.4,5.302706e-19
142.6,5.195748e-19
142.8,5.276793e-19
143,5.435936e-19
143.2,5.536195e-19
143.4,5.430326e-19
143.6,5.209467e-19
143.8,5.184887e-19
144,5.276858e-19
144.2,5.381952e-19
144.4,5.356359e-19
144.6,5.332631e-19
144.8,5.317321e-19
145,5.366996e-19
145.2,5.518438e-19
145.4,5.682057e-19
145.6,5.778542e-19
145.8,5.917758e-19
146,6.052594e-19
146.2,6.249212e-19
146.4,6.527785e-19
146.6,6.73574e-19
146.8,6.887216e-19
147,7.021514e-19
147.2,7.201289e-19
147.4,7.427658e-19
147.6,7.655679e-19
147.8,7.90664e-19
148,8.183213e-19
148.2,8.464813e-19
148.4,8.758084e-19
148.6,9.037565e-19
148.8,9.39102e-19
149,9.712592e-19
149.2,1.003184e-18
149.4,1.036088e-18
149.6,1.068158e-18
149.8,1.100496e-18
150,1.136358e-18
150.2,1.172711e-18
150.4,1.210784e-18
150.6,1.248793e-18
150.8,1.290867e-18
151,1.331488e-18
151.2,1.375242e-18
151.4,1.417819e-18
151.6,1.462504e-18
151.8,1.506821e-18
152,1.551501e-18
152.2,1.597982e-18
152.4,1.64359e-18
152.6,1.691975e-18
152.8,1.738583e-18
153,1.786259e-18
153.2,1.837354e-18
153.4,1.888154e-18
153.6,1.940307e-18
153.8,1.993982e-18
154,2.04553e-18
154.2,2.100339e-18
154.4,2.155233e-18
154.6,2.210528e-18
154.8,2.268459e-18
155,2.326752e-18
155.2,2.384771e-18
155.4,2.4416e-18
155.6,2.504162e-18
155.8,2.562651e-18
156,2.625602e-18
156.2,2.685237e-18
156.4,2.747944e-18
156.6,2.806584e-18
156.8,2.86887e-18
157,2.928379e-18
157.2,2.987288e-18
157.4,3.048221e-18
157.6,3.110067e-18
157.8,3.172019e-18
158,3.232453e-18
158.2,3.294861e-18
158.4,3.35653e-18
158.6,3.422333e-18
158.8,3.485569e-18
159,3.548205e-18
159.2,3.61423e-18
159.4,3.677869e-18
159.6,3.743144e-18
159.8,3.807764e-18
160,3.870701e-18
160.2,3.933823e-18
160.4,3.993832e-18
160.6,4.053164e-18
160.8,4.111768e-18
161,4.169042e-18
161.2,4.223226e-18
161.4,4.277547e-18
161.6,4.327261e-18
161.8,4.378253e-18
162,4.427773e-18
162.2,4.474661e-18
162.4,4.520758e-18
162.6,4.568748e-18
162.8,4.6134e-18
163,4.658424e-18
163.2,4.703122e-18
163.4,4.751438e-18
163.6,4.796655e-18
163.8,4.840286e-18
164,4.880654e-18
164.2,4.922678e-18
164.4,4.961596e-18
164.6,5.001099e-18
164.8,5.03553e-18
165,5.069414e-18
165.2,5.097111e-18
165.4,5.122976e-18
165.6,5.145701e-18
165.8,5.15931e-18
166,5.171429e-18
166.2,5.179348e-18
166.4,5.184123e-18
166.6,5.183558e-18
166.8,5.182642e-18
167,5.175743e-18
167.2,5.16605e-18
167.4,5.157718e-18
167.6,5.147394e-18
167.8,5.13702e-18
168,5.127578e-18
168.2,5.118209e-18
168.4,5.108611e-18
168.6,5.099575e-18
168.8,5.091866e-18
169,5.082899e-18
169.2,5.072793e-18
169.4,5.06224e-18
169.6,5.047216e-18
169.8,5.033374e-18
170,5.011055e-18
170.2,4.98866e-18
170.4,4.957598e-18
170.6,4.921495e-18
170.8,4.879439e-18
171,4.832433e-18
171.2,4.777295e-18
171.4,4.713341e-18
171.6,4.645066e-18
171.8,4.569578e-18
172,4.489501e-18
172.2,4.404461e-18
172.4,4.316251e-18
172.6,4.226612e-18
172.8,4.137895e-18
173,4.047523e-18
173.2,3.961936e-18
173.4,3.879235e-18
173.6,3.794758e-18
173.8,3.713648e-18
174,3.634717e-18
174.2,3.557329e-18
174.4,3.486785e-18
174.6,3.418195e-18
174.8,3.35141e-18
175,3.286594e-18
175.2,3.222168e-18
175.4,3.157681e-18
175.6,3.092977e-18
175.8,3.023977e-18
176,2.953007e-18
176.2,2.87993e-18
176.4,2.804307e-18
176.6,2.721981e-18
176.8,2.634004e-18
177,2.542556e-18
177.2,2.445836e-18
177.4,2.341752e-18
177.6,2.23377e-18
177.8,2.12317e-18
178,2.009096e-18
178.2,1.892101e-18
178.4,1.7751e-18
178.6,1.657614e-18
178.8,1.543784e-18
179,1.429459e-18
179.2,1.319685e-18
179.4,1.214398e-18
179.6,1.11188e-18
179.8,1.014734e-18
180,9.240519e-19
180.2,8.404225e-19
180.4,7.637847e-19
180.6,6.891236e-19
180.8,6.246523e-19
181,5.642874e-19
181.2,5.089362e-19
181.4,4.574508e-19
181.6,4.133981e-19
181.8,3.7185e-19
182,3.320497e-19
182.2,3.002891e-19
182.4,2.701171e-19
182.6,2.427815e-19
182.8,2.18031e-19
183,1.966136e-19
183.2,1.770487e-19
183.4,1.586012e-19
183.6,1.447197e-19
183.8,1.307805e-19
184,1.185258e-19
184.2,1.070227e-19
184.4,9.614054e-20
184.6,8.73981e-20
184.8,7.928411e-20
185,7.189138e-20
185.2,6.493097e-20
185.4,5.872297e-20
185.6,5.319026e-20
185.8,4.813508e-20
186,4.42944e-20
186.2,4.030168e-20
186.4,3.652796e-20
186.6,3.368858e-20
186.8,3.063616e-20
187,2.802813e-20
187.2,2.575071e-20
187.4,2.341663e-20
187.6,2.156397e-20
187.8,1.982384e-20
188,1.812342e-20
188.2,1.642124e-20
188.4,1.453693e-20
188.6,1.364138e-20
188.8,1.248367e-20
189,1.144155e-20
189.2,1.043211e-20
189.4,9.061372e-21
189.6,9.013985e-21
189.8,8.106179e-21
190,7.668049e-21
190.2,7.481716e-21
190.4,6.869215e-21
190.6,6.40893e-21
190.8,5.850418e-21
191,5.210162e-21
191.2,4.85211e-21
191.4,4.931555e-21
191.6,4.487088e-21
191.8,3.595558e-21
192,3.220044e-21
192.2,3.260043e-21
192.4,3.490772e-21
192.6,3.795169e-21
192.8,2.800651e-21
193,3.15553e-21
193.2,2.871497e-21
193.4,2.794774e-21
193.6,2.704083e-21
193.8,2.576077e-21
194,9.48e-22
194.2,8.98e-22
194.4,8.44e-22
194.6,7.44e-22
194.8,6.99e-22
195,5.81e-22
195.2,5e-22
195.4,4.45e-22
195.6,3.98e-22
195.8,3.81e-22
196,3.68e-22
196.2,1.0326093276e-21
196.4,9.7865277355e-22
196.6,9.9751632787e-22
196.8,9.21939586e-22
197,9.9653619273e-22
197.2,9.33e-22
197.4,9.03e-22
197.6,9.4649878463e-22
197.8,8.7007431228e-22
198,8.7850603651e-22
198.2,8.8986046251e-22
198.4,8.6326678977e-22
198.6,8.0762712449e-22
198.8,7.3695341971e-22
199,4.979125066e-22
199.2,3.3640778046e-22
199.4,2.2728931942e-22
199.6,1.5356492246e-22
199.8,1.037540412e-22
290,2.27e-24
295,1.06e-24
300,8.71e-25
305,6.85e-25
310,5.58e-25
315,2.19e-25
320,1.62e-25
325,1.4e-25
330,2.94e-25
335,5.89e-25
340,2.49e-25
345,4.8e-25