Index PRESSURE   CH2OH      CH3O       CH3OH      HCCO       H2CCO      C2H3O      CH3CHO     C2H4OH     HO2        H2O2    
   1  9.998E+05   7.153E+11  5.279E+10  3.862E+12  1.197E+10  6.503E+11  8.805E+09  3.525E+10  3.850E+07  2.686E+07  2.510E+08
   2  9.669E+05   6.413E+11  4.648E+10  3.634E+12  1.044E+10  6.038E+11  7.952E+09  3.302E+10  3.416E+07  2.226E+07  2.156E+08
   3  9.352E+05   5.744E+11  4.089E+10  3.420E+12  9.077E+09  5.602E+11  7.173E+09  3.094E+10  3.027E+07  1.840E+07  1.849E+08
   4  9.042E+05   5.135E+11  3.588E+10  3.216E+12  7.876E+09  5.191E+11  6.461E+09  2.897E+10  2.679E+07  1.517E+07  1.581E+08
   5  8.747E+05   4.602E+11  3.159E+10  3.025E+12  6.858E+09  4.816E+11  5.829E+09  2.712E+10  2.375E+07  1.257E+07  1.358E+08
   6  8.459E+05   4.106E+11  2.766E+10  2.847E+12  5.921E+09  4.452E+11  5.238E+09  2.538E+10  2.099E+07  1.031E+07  1.158E+08
   7  8.182E+05   3.671E+11  2.428E+10  2.678E+12  5.129E+09  4.121E+11  4.714E+09  2.375E+10  1.856E+07  8.498E+06  9.917E+07
   8  7.912E+05   3.277E+11  2.127E+10  2.517E+12  4.433E+09  3.809E+11  4.235E+09  2.220E+10  1.640E+07  6.988E+06  8.471E+07
   9  7.652E+05   2.922E+11  1.861E+10  2.367E+12  3.820E+09  3.516E+11  3.800E+09  2.075E+10  1.447E+07  5.732E+06  7.226E+07
  10  7.399E+05   2.601E+11  1.626E+10  2.224E+12  3.284E+09  3.243E+11  3.404E+09  1.938E+10  1.274E+07  4.687E+06  6.151E+07
  11  7.156E+05   2.313E+11  1.418E+10  2.092E+12  2.816E+09  2.986E+11  3.046E+09  1.810E+10  1.123E+07  3.823E+06  5.228E+07
  12  6.922E+05   2.062E+11  1.241E+10  1.967E+12  2.425E+09  2.755E+11  2.731E+09  1.691E+10  9.900E+06  3.137E+06  4.462E+07
  13  6.692E+05   1.828E+11  1.079E+10  1.848E+12  2.067E+09  2.530E+11  2.435E+09  1.577E+10  8.690E+06  2.545E+06  3.778E+07
  14  6.474E+05   1.625E+11  9.408E+09  1.737E+12  1.769E+09  2.328E+11  2.177E+09  1.472E+10  7.647E+06  2.077E+06  3.213E+07
  15  6.260E+05   1.437E+11  8.151E+09  1.632E+12  1.500E+09  2.132E+11  1.934E+09  1.371E+10  6.696E+06  1.675E+06  2.710E+07
  16  6.054E+05   1.274E+11  7.084E+09  1.533E+12  1.276E+09  1.956E+11  1.723E+09  1.277E+10  5.875E+06  1.359E+06  2.296E+07
  17  5.751E+05   1.054E+11  5.684E+09  1.393E+12  9.886E+08  1.706E+11  1.436E+09  1.144E+10  4.787E+06  9.773E+05  1.769E+07
  18  5.469E+05   8.740E+10  4.572E+09  1.267E+12  7.664E+08  1.489E+11  1.199E+09  1.026E+10  3.910E+06  7.056E+05  1.368E+07
  19  5.203E+05   7.223E+10  3.662E+09  1.153E+12  5.895E+08  1.295E+11  9.965E+08  9.192E+09  3.184E+06  5.057E+05  1.053E+07
  20  4.945E+05   5.915E+10  2.902E+09  1.047E+12  4.459E+08  1.117E+11  8.199E+08  8.198E+09  2.569E+06  3.561E+05  8.009E+06
  21  4.705E+05   4.849E+10  2.303E+09  9.513E+11  3.373E+08  9.624E+10  6.748E+08  7.311E+09  2.076E+06  2.513E+05  6.104E+06
  22  4.473E+05   3.937E+10  1.806E+09  8.627E+11  2.504E+08  8.219E+10  5.493E+08  6.489E+09  1.661E+06  1.742E+05  4.593E+06
  23  4.255E+05   3.214E+10  1.427E+09  7.829E+11  1.878E+08  7.048E+10  4.496E+08  5.769E+09  1.335E+06  1.221E+05  3.485E+06
  24  4.048E+05   2.611E+10  1.121E+09  7.098E+11  1.396E+08  6.011E+10  3.659E+08  5.114E+09  1.068E+06  8.500E+04  2.631E+06
  25  3.847E+05   2.120E+10  8.807E+08  6.418E+11  1.039E+08  5.127E+10  2.976E+08  4.524E+09  8.531E+05  5.923E+04  1.986E+06
  26  3.660E+05   1.725E+10  6.937E+08  5.810E+11  7.740E+07  4.373E+10  2.422E+08  4.004E+09  6.824E+05  4.147E+04  1.505E+06
  27  3.480E+05   1.412E+10  5.505E+08  5.255E+11  5.857E+07  3.754E+10  1.986E+08  3.548E+09  5.489E+05  2.945E+04  1.151E+06
  28  3.311E+05   1.172E+10  4.445E+08  4.762E+11  4.555E+07  3.265E+10  1.654E+08  3.162E+09  4.471E+05  2.156E+04  8.980E+05
  29  3.147E+05   9.686E+09  3.573E+08  4.307E+11  3.524E+07  2.831E+10  1.372E+08  2.812E+09  3.628E+05  1.568E+04  6.973E+05
  30  2.994E+05   8.136E+09  2.928E+08  3.905E+11  2.814E+07  2.493E+10  1.159E+08  2.518E+09  2.988E+05  1.177E+04  5.535E+05
  31  2.845E+05   6.809E+09  2.390E+08  3.533E+11  2.236E+07  2.189E+10  9.757E+07  2.250E+09  2.452E+05  8.798E+03  4.375E+05
  32  2.707E+05   5.766E+09  1.979E+08  3.208E+11  1.816E+07  1.943E+10  8.319E+07  2.022E+09  2.037E+05  6.723E+03  3.513E+05
  33  2.575E+05   4.902E+09  1.646E+08  2.911E+11  1.489E+07  1.733E+10  7.130E+07  1.820E+09  1.698E+05  5.187E+03  2.838E+05
  34  2.449E+05   4.188E+09  1.378E+08  2.643E+11  1.233E+07  1.553E+10  6.146E+07  1.642E+09  1.422E+05  4.043E+03  2.309E+05
  35  2.329E+05   3.571E+09  1.151E+08  2.399E+11  1.018E+07  1.389E+10  5.285E+07  1.480E+09  1.188E+05  3.141E+03  1.873E+05
  36  2.216E+05   3.085E+09  9.760E+07  2.181E+11  8.618E+06  1.259E+10  4.613E+07  1.342E+09  1.006E+05  2.501E+03  1.546E+05
  37  2.107E+05   2.659E+09  8.260E+07  1.983E+11  7.277E+06  1.139E+10  4.019E+07  1.215E+09  8.497E+04  1.987E+03  1.273E+05
  38  2.005E+05   2.305E+09  7.038E+07  1.803E+11  6.218E+06  1.036E+10  3.525E+07  1.104E+09  7.218E+04  1.597E+03  1.057E+05
  39  1.906E+05   1.996E+09  5.989E+07  1.639E+11  5.303E+06  9.421E+09  3.088E+07  1.002E+09  6.123E+04  1.281E+03  8.758E+04
  40  1.813E+05   1.752E+09  5.180E+07  1.493E+11  4.648E+06  8.682E+09  2.747E+07  9.148E+08  5.263E+04  1.055E+03  7.393E+04
  41  1.724E+05   1.535E+09  4.473E+07  1.359E+11  4.065E+06  7.988E+09  2.440E+07  8.344E+08  4.516E+04  8.681E+02  6.231E+04
  42  1.640E+05   1.354E+09  3.892E+07  1.237E+11  3.602E+06  7.395E+09  2.183E+07  7.630E+08  3.897E+04  7.235E+02  5.297E+04
  43  1.560E+05   1.202E+09  3.414E+07  1.127E+11  3.234E+06  6.889E+09  1.967E+07  6.994E+08  3.384E+04  6.114E+02  4.545E+04
  44  1.484E+05   1.074E+09  3.017E+07  1.028E+11  2.943E+06  6.458E+09  1.785E+07  6.427E+08  2.955E+04  5.236E+02  3.935E+04
  45  1.411E+05   9.573E+08  2.662E+07  9.354E+10  2.674E+06  6.045E+09  1.618E+07  5.895E+08  2.574E+04  4.480E+02  3.402E+04
  46  1.343E+05   8.665E+08  2.391E+07  8.534E+10  2.499E+06  5.735E+09  1.489E+07  5.438E+08  2.274E+04  3.949E+02  3.001E+04
  47  1.277E+05   7.824E+08  2.143E+07  7.766E+10  2.332E+06  5.430E+09  1.368E+07  5.005E+08  2.003E+04  3.476E+02  2.644E+04
  48  1.215E+05   7.113E+08  1.936E+07  7.070E+10  2.205E+06  5.168E+09  1.265E+07  4.613E+08  1.773E+04  3.106E+02  2.352E+04
  49  1.089E+05   5.814E+08  1.566E+07  5.733E+10  1.986E+06  4.663E+09  1.072E+07  3.846E+08  1.363E+04  2.482E+02  1.847E+04
  50  9.853E+04   4.921E+08  1.319E+07  4.710E+10  1.877E+06  4.295E+09  9.361E+06  3.249E+08  1.083E+04  2.124E+02  1.527E+04
  51  8.914E+04   4.138E+08  1.104E+07  3.844E+10  1.754E+06  3.911E+09  8.081E+06  2.712E+08  8.499E+03  1.812E+02  1.259E+04
  52  8.067E+04   3.481E+08  9.257E+06  3.119E+10  1.642E+06  3.542E+09  6.947E+06  2.243E+08  6.636E+03  1.566E+02  1.046E+04
  53  7.298E+04   2.891E+08  7.651E+06  2.514E+10  1.500E+06  3.154E+09  5.866E+06  1.831E+08  5.094E+03  1.330E+02  8.590E+03
  54  6.605E+04   2.403E+08  6.341E+06  2.015E+10  1.373E+06  2.792E+09  4.929E+06  1.481E+08  3.888E+03  1.147E+02  7.118E+03
  55  5.977E+04   1.975E+08  5.185E+06  1.607E+10  1.228E+06  2.434E+09  4.074E+06  1.184E+08  2.923E+03  9.722E+01  5.834E+03
  56  5.406E+04   1.621E+08  4.244E+06  1.273E+10  1.099E+06  2.107E+09  3.346E+06  9.354E+07  2.179E+03  8.365E+01  4.825E+03
  57  4.893E+04   1.332E+08  3.481E+06  1.001E+10  9.846E+05  1.809E+09  2.731E+06  7.303E+07  1.613E+03  7.310E+01  4.034E+03
  58  4.428E+04   1.093E+08  2.857E+06  7.818E+09  8.808E+05  1.540E+09  2.211E+06  5.625E+07  1.182E+03  6.493E+01  3.408E+03
  59  4.006E+04   8.881E+07  2.317E+06  6.082E+09  7.709E+05  1.293E+09  1.764E+06  4.292E+07  8.541E+02  5.689E+01  2.856E+03
  60  3.625E+04   7.211E+07  1.881E+06  4.697E+09  6.740E+05  1.075E+09  1.395E+06  3.230E+07  6.113E+02  5.073E+01  2.422E+03
  61  3.280E+04   5.853E+07  1.529E+06  3.603E+09  5.883E+05  8.853E+08  1.094E+06  2.396E+07  4.334E+02  4.609E+01  2.083E+03
  62  2.970E+04   4.714E+07  1.232E+06  2.761E+09  5.037E+05  7.211E+08  8.481E+05  1.767E+07  3.040E+02  4.141E+01  1.780E+03
  63  2.687E+04   3.777E+07  9.868E+05  2.104E+09  4.265E+05  5.809E+08  6.498E+05  1.288E+07  2.108E+02  3.732E+01  1.526E+03
  64  2.432E+04   3.029E+07  7.926E+05  1.595E+09  3.611E+05  4.640E+08  4.944E+05  9.271E+06  1.449E+02  3.434E+01  1.329E+03
  65  2.200E+04   2.411E+07  6.308E+05  1.207E+09  3.003E+05  3.672E+08  3.721E+05  6.638E+06  9.869E+01  3.122E+01  1.149E+03
  66  1.991E+04   1.906E+07  4.979E+05  9.140E+08  2.459E+05  2.883E+08  2.776E+05  4.735E+06  6.672E+01  2.806E+01  9.876E+02
  67  1.801E+04   1.504E+07  3.922E+05  6.905E+08  2.000E+05  2.249E+08  2.058E+05  3.358E+06  4.482E+01  2.532E+01  8.522E+02
  68  1.630E+04   1.184E+07  3.083E+05  5.209E+08  1.617E+05  1.744E+08  1.516E+05  2.367E+06  2.995E+01  2.294E+01  7.384E+02
  69  1.475E+04   9.306E+06  2.419E+05  3.921E+08  1.300E+05  1.345E+08  1.111E+05  1.660E+06  1.989E+01  2.085E+01  6.419E+02
  70  1.335E+04   7.304E+06  1.896E+05  2.948E+08  1.040E+05  1.032E+08  8.105E+04  1.158E+06  1.315E+01  1.902E+01  5.602E+02
  71  1.207E+04   5.701E+06  1.475E+05  2.219E+08  8.229E+04  7.895E+07  5.883E+04  8.086E+05  8.667E+00  1.711E+01  4.845E+02
  72  1.093E+04   4.449E+06  1.147E+05  1.670E+08  6.488E+04  6.021E+07  4.259E+04  5.630E+05  5.698E+00  1.544E+01  4.205E+02
  73  9.888E+03   3.459E+06  8.877E+04  1.261E+08  5.072E+04  4.591E+07  3.079E+04  3.940E+05  3.748E+00  1.372E+01  3.612E+02
  74  8.946E+03   2.677E+06  6.826E+04  9.545E+07  3.927E+04  3.496E+07  2.221E+04  2.765E+05  2.463E+00  1.200E+01  3.070E+02
  75  8.094E+03   2.065E+06  5.223E+04  7.252E+07  3.018E+04  2.666E+07  1.601E+04  1.951E+05  1.621E+00  1.032E+01  2.583E+02
  76  7.325E+03   1.588E+06  3.978E+04  5.533E+07  2.303E+04  2.035E+07  1.155E+04  1.386E+05  1.070E+00  8.731E+00  2.148E+02
  77  6.626E+03   1.217E+06  3.012E+04  4.236E+07  1.743E+04  1.555E+07  8.327E+03  9.898E+04  7.064E-01  7.257E+00  1.765E+02
  78  5.994E+03   9.285E+05  2.268E+04  3.254E+07  1.309E+04  1.190E+07  6.005E+03  7.115E+04  4.675E-01  5.918E+00  1.432E+02
  79  5.423E+03   7.064E+05  1.701E+04  2.512E+07  9.771E+03  9.131E+06  4.338E+03  5.156E+04  3.104E-01  4.736E+00  1.147E+02
  80  4.906E+03   5.375E+05  1.274E+04  1.941E+07  7.287E+03  7.010E+06  3.134E+03  3.740E+04  2.064E-01  3.785E+00  9.177E+01
  81  4.439E+03   4.084E+05  9.539E+03  1.499E+07  5.423E+03  5.372E+06  2.261E+03  2.709E+04  1.369E-01  3.022E+00  7.340E+01
  82  4.016E+03   3.112E+05  7.174E+03  1.153E+07  4.058E+03  4.107E+06  1.629E+03  1.949E+04  9.055E-02  2.456E+00  5.943E+01
  83  3.633E+03   2.388E+05  5.442E+03  8.798E+06  3.073E+03  3.123E+06  1.169E+03  1.381E+04  5.956E-02  2.072E+00  4.940E+01
  84  3.288E+03   1.844E+05  4.167E+03  6.659E+06  2.354E+03  2.359E+06  8.361E+02  9.629E+03  3.889E-02  1.817E+00  4.218E+01
  85  2.976E+03   1.436E+05  3.224E+03  5.012E+06  1.830E+03  1.776E+06  5.975E+02  6.628E+03  2.537E-02  1.658E+00  3.705E+01
  86  2.690E+03   1.108E+05  2.472E+03  3.761E+06  1.404E+03  1.332E+06  4.243E+02  4.559E+03  1.639E-02  1.482E+00  3.205E+01
  87  2.434E+03   8.588E+04  1.900E+03  2.836E+06  1.081E+03  1.002E+06  3.027E+02  3.153E+03  1.068E-02  1.326E+00  2.777E+01
  88  2.203E+03   6.629E+04  1.455E+03  2.148E+06  8.269E+02  7.569E+05  2.164E+02  2.198E+03  6.976E-03  1.164E+00  2.375E+01
  89  1.994E+03   5.110E+04  1.109E+03  1.636E+06  6.295E+02  5.740E+05  1.552E+02  1.548E+03  4.588E-03  1.001E+00  2.002E+01
  90  1.803E+03   3.906E+04  8.352E+02  1.256E+06  4.724E+02  4.372E+05  1.114E+02  1.105E+03  3.029E-03  8.263E-01  1.641E+01
  91  1.631E+03   2.983E+04  6.266E+02  9.710E+05  3.534E+02  3.353E+05  8.048E+01  7.990E+02  2.020E-03  6.679E-01  1.325E+01
  92  1.476E+03   2.274E+04  4.675E+02  7.556E+05  2.628E+02  2.582E+05  5.830E+01  5.835E+02  1.356E-03  5.284E-01  1.054E+01
  93  1.335E+03   1.726E+04  3.470E+02  5.910E+05  1.941E+02  1.997E+05  4.233E+01  4.303E+02  9.145E-04  4.087E-01  8.248E+00
  94  1.208E+03   1.320E+04  2.577E+02  4.658E+05  1.444E+02  1.557E+05  3.100E+01  3.202E+02  6.264E-04  3.153E-01  6.447E+00
  95  1.093E+03   1.003E+04  1.901E+02  3.682E+05  1.064E+02  1.215E+05  2.268E+01  2.399E+02  4.289E-04  2.375E-01  4.954E+00
  96  9.889E+02   7.750E+03  1.413E+02  2.942E+05  8.005E+01  9.608E+04  1.684E+01  1.813E+02  3.019E-04  1.823E-01  3.860E+00
  97  8.941E+02   5.951E+03  1.041E+02  2.356E+05  5.963E+01  7.602E+04  1.248E+01  1.379E+02  2.124E-04  1.365E-01  2.954E+00
  98  8.089E+02   4.652E+03  7.736E+01  1.908E+05  4.540E+01  6.096E+04  9.391E+00  1.058E+02  1.537E-04  1.042E-01  2.292E+00
  99  7.321E+02   3.705E+03  5.790E+01  1.563E+05  3.535E+01  4.955E+04  7.175E+00  8.192E+01  1.146E-04  8.114E-02  1.804E+00
 100  6.622E+02   2.932E+03  4.303E+01  1.284E+05  2.726E+01  4.033E+04  5.477E+00  6.388E+01  8.541E-05  6.161E-02  1.394E+00
 101  5.989E+02   2.335E+03  3.198E+01  1.062E+05  2.114E+01  3.306E+04  4.211E+00  5.022E+01  6.460E-05  4.666E-02  1.076E+00
 102  5.419E+02   1.870E+03  2.380E+01  8.853E+04  1.649E+01  2.729E+04  3.261E+00  3.980E+01  4.949E-05  3.524E-02  8.285E-01
 103  4.902E+02   1.485E+03  1.760E+01  7.386E+04  1.269E+01  2.252E+04  2.519E+00  3.173E+01  3.774E-05  2.591E-02  6.264E-01
 104  4.432E+02   1.166E+03  1.289E+01  6.157E+04  9.623E+00  1.852E+04  1.936E+00  2.538E+01  2.854E-05  1.854E-02  4.643E-01
 105  4.010E+02   9.178E+02  9.459E+00  5.155E+04  7.306E+00  1.529E+04  1.494E+00  2.042E+01  2.171E-05  1.321E-02  3.435E-01
 106  3.630E+02   7.228E+02  6.941E+00  4.327E+04  5.548E+00  1.266E+04  1.156E+00  1.650E+01  1.656E-05  9.372E-03  2.533E-01
 107  3.282E+02   5.524E+02  5.000E+00  3.596E+04  4.050E+00  1.033E+04  8.784E-01  1.332E+01  1.223E-05  6.294E-03  1.796E-01
 108  2.968E+02   4.213E+02  3.596E+00  2.990E+04  2.950E+00  8.429E+03  6.674E-01  1.077E+01  9.025E-06  4.199E-03  1.269E-01
 109  2.685E+02   3.205E+02  2.585E+00  2.487E+04  2.139E+00  6.875E+03  5.068E-01  8.725E+00  6.638E-06  2.785E-03  8.924E-02
 110  2.429E+02   2.392E+02  1.839E+00  2.055E+04  1.514E+00  5.557E+03  3.808E-01  7.067E+00  4.785E-06  1.785E-03  6.131E-02
 111  2.196E+02   1.777E+02  1.302E+00  1.695E+04  1.065E+00  4.479E+03  2.851E-01  5.718E+00  3.426E-06  1.135E-03  4.185E-02
 112  1.986E+02   1.293E+02  9.134E-01  1.389E+04  7.296E-01  3.575E+03  2.111E-01  4.629E+00  2.405E-06  6.965E-04  2.789E-02
 113  1.797E+02   9.508E+01  6.447E-01  1.142E+04  5.064E-01  2.867E+03  1.573E-01  3.750E+00  1.699E-06  4.355E-04  1.883E-02
 114  1.624E+02   6.841E+01  4.491E-01  9.315E+03  3.415E-01  2.272E+03  1.157E-01  3.034E+00  1.180E-06  2.622E-04  1.238E-02
 115  1.469E+02   4.975E+01  3.150E-01  7.628E+03  2.334E-01  1.809E+03  8.562E-02  2.456E+00  8.272E-07  1.610E-04  8.247E-03
 116  1.329E+02   3.661E+01  2.225E-01  6.271E+03  1.618E-01  1.447E+03  6.385E-02  1.989E+00  5.863E-07  1.009E-04  5.577E-03
 117  1.202E+02   2.683E+01  1.567E-01  5.147E+03  1.114E-01  1.153E+03  4.749E-02  1.612E+00  4.169E-07  6.270E-05  3.752E-03
 118  1.087E+02   1.991E+01  1.112E-01  4.241E+03  7.780E-02  9.227E+02  3.558E-02  1.306E+00  2.999E-07  3.989E-05  2.564E-03
 119  9.839E+01   1.496E+01  7.951E-02  3.512E+03  5.523E-02  7.427E+02  2.689E-02  1.059E+00  2.184E-07  2.597E-05  1.781E-03
 120  8.897E+01   1.124E+01  5.676E-02  2.905E+03  3.898E-02  5.948E+02  2.028E-02  8.606E-01  1.611E-07  1.684E-05  1.235E-03
 121  8.048E+01   8.554E+00  4.086E-02  2.413E+03  2.798E-02  4.788E+02  1.543E-02  6.993E-01  1.210E-07  1.120E-05  8.715E-04
 122  7.280E+01   6.607E+00  2.964E-02  2.014E+03  2.043E-02  3.874E+02  1.184E-02  5.675E-01  9.323E-08  7.648E-06  6.260E-04
 123  6.584E+01   5.133E+00  2.159E-02  1.686E+03  1.490E-02  3.120E+02  9.111E-03  4.647E-01  7.502E-08  5.239E-06  4.529E-04
 124  5.958E+01   4.093E+00  1.596E-02  1.422E+03  1.131E-02  2.557E+02  7.129E-03  3.770E-01  6.311E-08  3.787E-06  3.381E-04
 125  5.390E+01   3.288E+00  1.186E-02  1.203E+03  8.586E-03  2.087E+02  5.598E-03  3.088E-01  5.659E-08  2.751E-06  2.547E-04
 126  4.874E+01   2.660E+00  8.854E-03  1.021E+03  6.519E-03  1.696E+02  4.410E-03  2.552E-01  5.415E-08  2.008E-06  1.934E-04
 127  4.408E+01   2.192E+00  6.688E-03  8.720E+02  5.063E-03  1.389E+02  3.513E-03  2.110E-01  5.457E-08  1.513E-06  1.502E-04
 128  3.987E+01   1.845E+00  5.125E-03  7.502E+02  4.033E-03  1.148E+02  2.833E-03  1.749E-01  5.693E-08  1.180E-06  1.196E-04
 129  3.608E+01   1.586E+00  3.988E-03  6.505E+02  3.300E-03  9.585E+01  2.313E-03  1.453E-01  6.046E-08  9.529E-07  9.766E-05
 130  3.264E+01   1.392E+00  3.156E-03  5.689E+02  2.735E-03  8.008E+01  1.911E-03  1.234E-01  6.490E-08  7.831E-07  8.174E-05
 131  2.953E+01   1.249E+00  2.543E-03  5.013E+02  2.336E-03  6.773E+01  1.599E-03  1.051E-01  6.950E-08  6.670E-07  7.019E-05
 132  2.672E+01   1.148E+00  2.092E-03  4.459E+02  2.058E-03  5.807E+01  1.357E-03  8.976E-02  7.325E-08  5.900E-07  6.203E-05
 133  2.417E+01   1.082E+00  1.764E-03  4.005E+02  1.849E-03  4.996E+01  1.168E-03  7.881E-02  7.722E-08  5.332E-07  5.654E-05
 134  2.188E+01   1.047E+00  1.528E-03  3.632E+02  1.722E-03  4.368E+01  1.021E-03  6.961E-02  8.032E-08  5.010E-07  5.311E-05
 135  1.980E+01   1.037E+00  1.360E-03  3.321E+02  1.659E-03  3.879E+01  9.053E-04  6.167E-02  8.219E-08  4.886E-07  5.134E-05
 136  1.793E+01   1.051E+00  1.247E-03  3.064E+02  1.653E-03  3.501E+01  8.136E-04  5.478E-02  8.288E-08  4.943E-07  5.103E-05
 137  1.621E+01   1.091E+00  1.180E-03  2.847E+02  1.682E-03  3.172E+01  7.413E-04  4.993E-02  8.371E-08  5.104E-07  5.232E-05
 138  1.467E+01   1.148E+00  1.146E-03  2.659E+02  1.758E-03  2.916E+01  6.813E-04  4.522E-02  8.275E-08  5.424E-07  5.458E-05
 139  1.328E+01   1.225E+00  1.144E-03  2.492E+02  1.864E-03  2.688E+01  6.326E-04  4.175E-02  8.162E-08  5.844E-07  5.822E-05
 140  1.201E+01   1.322E+00  1.169E-03  2.343E+02  2.025E-03  2.510E+01  5.917E-04  3.820E-02  7.899E-08  6.461E-07  6.300E-05
 141  1.087E+01   1.446E+00  1.228E-03  2.212E+02  2.258E-03  2.375E+01  5.578E-04  3.474E-02  7.545E-08  7.354E-07  6.945E-05
 142  7.742E+00   1.985E+00  1.601E-03  1.801E+02  3.421E-03  1.993E+01  4.654E-04  2.516E-02  5.985E-08  1.204E-06  1.015E-04
 143  5.562E+00   2.800E+00  2.377E-03  1.474E+02  5.786E-03  1.787E+01  3.999E-04  1.675E-02  4.089E-08  2.294E-06  1.580E-04
 144  4.003E+00   4.051E+00  3.909E-03  1.221E+02  1.092E-02  1.724E+01  3.398E-04  9.014E-03  2.249E-08  5.315E-06  2.475E-04
 145  2.883E+00   5.921E+00  6.820E-03  1.020E+02  2.150E-02  1.721E+01  2.792E-04  4.008E-03  1.036E-08  1.420E-05  3.779E-04
 146  2.077E+00   8.760E+00  1.252E-02  8.535E+01  4.332E-02  1.740E+01  2.204E-04  1.489E-03  4.177E-09  4.335E-05  5.657E-04
 147  1.499E+00   1.262E+01  2.307E-02  6.903E+01  8.327E-02  1.683E+01  1.647E-04  5.010E-04  1.615E-09  1.376E-04  8.367E-04
 148  1.081E+00   1.638E+01  3.918E-02  5.083E+01  1.383E-01  1.441E+01  1.122E-04  1.629E-04  6.380E-10  4.014E-04  1.207E-03
 149  7.792E-01   1.779E+01  5.675E-02  3.207E+01  1.852E-01  1.032E+01  6.576E-05  4.927E-05  2.508E-10  1.040E-03  1.679E-03
 150  5.611E-01   1.458E+01  6.278E-02  1.566E+01  1.823E-01  5.619E+00  3.028E-05  1.282E-05  8.755E-11  2.360E-03  2.269E-03
 151  4.042E-01   8.263E+00  4.796E-02  5.439E+00  1.260E-01  2.237E+00  9.764E-06  2.308E-06  2.333E-11  5.054E-03  2.850E-03
 152  2.912E-01   2.938E+00  2.258E-02  1.224E+00  5.813E-02  6.231E-01  2.070E-06  2.745E-07  4.956E-12  1.000E-02  3.354E-03
 153  2.095E-01   6.211E-01  6.130E-03  1.695E-01  1.970E-02  1.355E-01  2.983E-07  2.069E-08  9.659E-13  1.828E-02  3.659E-03
 154  1.509E-01   7.879E-02  9.672E-04  1.458E-02  6.404E-03  3.020E-02  3.808E-08  1.004E-09  1.739E-13  3.200E-02  3.681E-03
 155  1.086E-01   7.265E-03  1.072E-04  9.444E-04  2.183E-03  7.321E-03  6.121E-09  4.270E-11  2.633E-14  5.160E-02  3.475E-03
 156  8.022E-02   9.603E-04  1.647E-05  9.131E-05  6.495E-04  1.589E-03  1.079E-09  3.107E-12  3.269E-15  7.484E-02  3.171E-03
