Index   TEMPERATURE   DENSITY    PRESSURE    DIFFUSION  
   1     2600.0      4.658E+21  1.672E+06    1.000E+10
   2     2579.0      4.543E+21  1.617E+06    1.000E+10
   3     2557.0      4.430E+21  1.564E+06    1.000E+10
   4     2536.0      4.320E+21  1.512E+06    1.000E+10
   5     2515.0      4.212E+21  1.462E+06    1.000E+10
   6     2494.0      4.108E+21  1.414E+06    1.000E+10
   7     2474.0      4.006E+21  1.368E+06    1.000E+10
   8     2453.0      3.907E+21  1.323E+06    1.000E+10
   9     2433.0      3.810E+21  1.280E+06    1.000E+10
  10     2413.0      3.715E+21  1.237E+06    1.000E+10
  11     2382.0      3.576E+21  1.176E+06    1.000E+10
  12     2352.0      3.444E+21  1.118E+06    1.000E+10
  13     2323.0      3.317E+21  1.064E+06    1.000E+10
  14     2293.0      3.195E+21  1.011E+06    1.000E+10
  15     2264.0      3.077E+21  9.616E+05    1.000E+10
  16     2236.0      2.964E+21  9.148E+05    1.000E+10
  17     2207.0      2.855E+21  8.697E+05    1.000E+10
  18     2180.0      2.749E+21  8.272E+05    1.000E+10
  19     2152.0      2.648E+21  7.866E+05    1.000E+10
  20     2125.0      2.550E+21  7.480E+05    1.000E+10
  21     2098.0      2.456E+21  7.112E+05    1.000E+10
  22     2071.0      2.366E+21  6.763E+05    1.000E+10
  23     2044.0      2.280E+21  6.433E+05    1.000E+10
  24     2018.0      2.196E+21  6.117E+05    1.000E+10
  25     1992.0      2.116E+21  5.818E+05    1.000E+10
  26     1966.0      2.039E+21  5.533E+05    1.000E+10
  27     1940.0      1.964E+21  5.259E+05    1.000E+10
  28     1915.0      1.892E+21  5.001E+05    1.000E+10
  29     1890.0      1.823E+21  4.756E+05    1.000E+10
  30     1866.0      1.756E+21  4.523E+05    1.000E+10
  31     1843.0      1.691E+21  4.302E+05    1.000E+10
  32     1821.0      1.628E+21  4.092E+05    1.000E+10
  33     1799.0      1.567E+21  3.891E+05    1.000E+10
  34     1779.0      1.507E+21  3.701E+05    1.000E+10
  35     1761.0      1.448E+21  3.520E+05    1.000E+10
  36     1744.0      1.390E+21  3.346E+05    1.000E+10
  37     1729.0      1.334E+21  3.184E+05    1.000E+10
  38     1715.0      1.279E+21  3.028E+05    1.000E+10
  39     1701.0      1.226E+21  2.879E+05    6.965E+09
  40     1688.0      1.175E+21  2.738E+05    4.755E+09
  41     1675.0      1.126E+21  2.603E+05    3.247E+09
  42     1662.0      1.080E+21  2.478E+05    2.221E+09
  43     1649.0      1.035E+21  2.356E+05    1.513E+09
  44     1635.0      9.927E+20  2.240E+05    1.034E+09
  45     1622.0      9.518E+20  2.131E+05    7.051E+08
  46     1609.0      9.123E+20  2.026E+05    4.820E+08
  47     1598.0      8.740E+20  1.928E+05    3.294E+08
  48     1587.0      8.367E+20  1.833E+05    2.252E+08
  49     1570.0      7.557E+20  1.638E+05    9.536E+07
  50     1562.0      6.871E+20  1.481E+05    1.288E+08
  51     1558.0      6.233E+20  1.340E+05    1.435E+08
  52     1555.0      5.651E+20  1.213E+05    1.411E+08
  53     1550.0      5.129E+20  1.097E+05    1.387E+08
  54     1544.0      4.658E+20  9.927E+04    1.366E+08
  55     1538.0      4.231E+20  8.982E+04    1.432E+08
  56     1533.0      3.840E+20  8.125E+04    1.499E+08
  57     1530.0      3.482E+20  7.353E+04    1.567E+08
  58     1527.0      3.156E+20  6.652E+04    1.663E+08
  59     1525.0      2.860E+20  6.020E+04    1.781E+08
  60     1521.0      2.594E+20  5.446E+04    1.897E+08
  61     1518.0      2.351E+20  4.926E+04    2.007E+08
  62     1517.0      2.130E+20  4.460E+04    2.080E+08
  63     1518.0      1.926E+20  4.036E+04    2.158E+08
  64     1521.0      1.739E+20  3.651E+04    2.238E+08
  65     1525.0      1.569E+20  3.303E+04    2.375E+08
  66     1528.0      1.418E+20  2.991E+04    2.542E+08
  67     1527.0      1.283E+20  2.704E+04    2.705E+08
  68     1526.0      1.162E+20  2.448E+04    2.848E+08
  69     1527.0      1.051E+20  2.215E+04    2.880E+08
  70     1531.0      9.484E+19  2.004E+04    2.920E+08
  71     1540.0      8.538E+19  1.815E+04    2.967E+08
  72     1550.0      7.677E+19  1.642E+04    3.199E+08
  73     1560.0      6.905E+19  1.487E+04    3.524E+08
  74     1568.0      6.217E+19  1.346E+04    3.850E+08
  75     1573.0      5.606E+19  1.217E+04    4.205E+08
  76     1577.0      5.062E+19  1.102E+04    4.698E+08
  77     1578.0      4.577E+19  9.969E+03    5.186E+08
  78     1577.0      4.144E+19  9.020E+03    5.668E+08
  79     1576.0      3.753E+19  8.164E+03    6.164E+08
  80     1574.0      3.399E+19  7.385E+03    6.664E+08
  81     1574.0      3.077E+19  6.685E+03    7.166E+08
  82     1573.0      2.785E+19  6.047E+03    7.701E+08
  83     1573.0      2.521E+19  5.474E+03    8.339E+08
  84     1571.0      2.283E+19  4.951E+03    8.971E+08
  85     1569.0      2.069E+19  4.481E+03    9.601E+08
  86     1566.0      1.876E+19  4.055E+03    1.033E+09
  87     1562.0      1.701E+19  3.667E+03    1.108E+09
  88     1557.0      1.543E+19  3.316E+03    1.182E+09
  89     1552.0      1.401E+19  3.001E+03    1.259E+09
  90     1547.0      1.272E+19  2.716E+03    1.342E+09
  91     1540.0      1.156E+19  2.457E+03    1.424E+09
  92     1533.0      1.050E+19  2.222E+03    1.505E+09
  93     1526.0      9.548E+18  2.011E+03    1.595E+09
  94     1518.0      8.682E+18  1.819E+03    1.685E+09
  95     1510.0      7.895E+18  1.646E+03    1.775E+09
  96     1502.0      7.181E+18  1.489E+03    1.869E+09
  97     1494.0      6.531E+18  1.347E+03    1.972E+09
  98     1486.0      5.941E+18  1.219E+03    2.074E+09
  99     1477.0      5.405E+18  1.102E+03    2.175E+09
 100     1469.0      4.918E+18  9.972E+02    2.313E+09
 101     1460.0      4.475E+18  9.018E+02    2.457E+09
 102     1452.0      4.072E+18  8.161E+02    2.598E+09
 103     1443.0      3.707E+18  7.384E+02    2.753E+09
 104     1433.0      3.375E+18  6.676E+02    2.928E+09
 105     1423.0      3.074E+18  6.038E+02    3.100E+09
 106     1413.0      2.801E+18  5.463E+02    3.268E+09
 107     1402.0      2.553E+18  4.941E+02    3.460E+09
 108     1391.0      2.328E+18  4.470E+02    3.649E+09
 109     1380.0      2.123E+18  4.044E+02    3.834E+09
 110     1368.0      1.936E+18  3.656E+02    4.017E+09
 111     1357.0      1.766E+18  3.308E+02    4.203E+09
 112     1345.0      1.611E+18  2.991E+02    4.382E+09
 113     1333.0      1.470E+18  2.705E+02    4.558E+09
 114     1321.0      1.342E+18  2.447E+02    4.734E+09
 115     1309.0      1.225E+18  2.213E+02    4.904E+09
 116     1297.0      1.118E+18  2.001E+02    5.069E+09
 117     1285.0      1.021E+18  1.811E+02    5.227E+09
 118     1273.0      9.323E+17  1.638E+02    5.381E+09
 119     1261.0      8.514E+17  1.482E+02    5.530E+09
 120     1249.0      7.774E+17  1.340E+02    5.676E+09
 121     1237.0      7.098E+17  1.212E+02    5.803E+09
 122     1225.0      6.480E+17  1.096E+02    5.930E+09
 123     1214.0      5.915E+17  9.912E+01    6.057E+09
 124     1203.0      5.398E+17  8.963E+01    6.177E+09
 125     1193.0      4.926E+17  8.112E+01    6.292E+09
 126     1183.0      4.494E+17  7.338E+01    6.408E+09
 127     1173.0      4.099E+17  6.637E+01    6.520E+09
 128     1163.0      3.738E+17  6.001E+01    6.628E+09
 129     1155.0      3.406E+17  5.430E+01    6.738E+09
 130     1146.0      3.103E+17  4.908E+01    6.852E+09
 131     1139.0      2.825E+17  4.441E+01    6.958E+09
 132     1133.0      2.570E+17  4.019E+01    7.067E+09
 133     1127.0      2.337E+17  3.635E+01    7.182E+09
 134     1122.0      2.123E+17  3.288E+01    7.298E+09
 135     1117.0      1.929E+17  2.974E+01    7.421E+09
 136     1113.0      1.752E+17  2.692E+01    7.548E+09
 137     1108.0      1.591E+17  2.433E+01    7.669E+09
 138     1093.0      1.161E+17  1.752E+01    8.083E+09
 139     1076.0      8.426E+16  1.251E+01    8.522E+09
 140     1062.0      6.107E+16  8.952E+00    9.029E+09
 141     1052.0      4.412E+16  6.407E+00    9.666E+09
 142     1045.0      3.178E+16  4.584E+00    1.042E+10
 143     1041.0      2.285E+16  3.283E+00    1.125E+10
 144     1038.0      1.641E+16  2.351E+00    1.218E+10
 145     1034.0      1.180E+16  1.684E+00    1.311E+10
 146     1030.0      8.487E+15  1.207E+00    1.397E+10
 147     1026.0      6.104E+15  8.644E-01    1.479E+10
 148     1022.0      4.387E+15  6.189E-01    1.556E+10
 149     1018.0      3.155E+15  4.433E-01    1.622E+10
 150     1012.0      2.274E+15  3.176E-01    1.673E+10
 151     1003.0      1.642E+15  2.273E-01    1.700E+10
 152      992.3      1.187E+15  1.626E-01    1.705E+10
 153      981.2      8.587E+14  1.163E-01    1.698E+10
 154      968.7      6.231E+14  8.334E-02    1.703E+10
 155      954.7      4.522E+14  5.961E-02    1.721E+10
 156      939.6      3.286E+14  4.263E-02    1.712E+10
 157      924.5      2.389E+14  3.049E-02    1.700E+10
 158      910.5      1.736E+14  2.183E-02    1.689E+10
 159      897.2      1.261E+14  1.562E-02    1.659E+10
 160      885.8      9.149E+13  1.119E-02    1.644E+10
 161      876.7      6.630E+13  8.025E-03    1.592E+10
 162      869.7      4.798E+13  5.761E-03    1.428E+10
 163      864.9      3.472E+13  4.146E-03    1.270E+10
 164      861.9      2.513E+13  2.991E-03    1.115E+10
 165      860.5      1.823E+13  2.166E-03    1.000E+10
 166      860.6      1.325E+13  1.575E-03    1.000E+10
 167      862.1      9.645E+12  1.148E-03    1.000E+10
 168      864.9      7.039E+12  8.405E-04    1.000E+10
 169      868.8      5.145E+12  6.172E-04    1.000E+10
 170      874.4      3.768E+12  4.549E-04    1.000E+10
 171      882.3      2.761E+12  3.363E-04    1.000E+10
 172      893.4      2.021E+12  2.493E-04    1.000E+10
 173      909.4      1.474E+12  1.851E-04    1.000E+10
 174      932.6      1.071E+12  1.379E-04    1.000E+10
 175      966.6      7.705E+11  1.028E-04    1.000E+10
 176     1018.0      5.468E+11  7.686E-05    1.000E+10
 177     1097.0      3.802E+11  5.758E-05    1.000E+10
 178     1226.0      2.560E+11  4.334E-05    1.000E+10
 179     1454.0      1.638E+11  3.288E-05    1.000E+10
 180     1911.0      9.599E+10  2.533E-05    1.000E+10
 181     3101.0      4.682E+10  2.005E-05    1.000E+10
 182     7389.0      1.577E+10  1.608E-05    1.000E+10
 183     8411.0      9.845E+09  1.143E-05    1.000E+10
 184     9449.0      6.217E+09  8.110E-06    1.000E+10
 185    10270.0      4.039E+09  5.728E-06    1.000E+10
 186    10870.0      2.691E+09  4.039E-06    1.000E+10
 187    11280.0      1.829E+09  2.848E-06    1.000E+10
 188    11550.0      1.261E+09  2.011E-06    1.000E+10
 189    11720.0      8.788E+08  1.422E-06    1.000E+10
 190    11830.0      6.172E+08  1.008E-06    1.000E+10
 191    11890.0      4.357E+08  7.152E-07    1.000E+10
 192    11940.0      3.087E+08  5.089E-07    1.000E+10
 193    11960.0      2.192E+08  3.620E-07    1.000E+10
 194    11980.0      1.559E+08  2.579E-07    1.000E+10
 195    11990.0      1.111E+08  1.839E-07    1.000E+10
 196    11990.0      7.919E+07  1.311E-07    1.000E+10
 197    11990.0      5.649E+07  9.351E-08    1.000E+10
 198    12000.0      4.032E+07  6.679E-08    1.000E+10