Index  PRESSURE   N          N2         NH         NH2        NH3        N2H        N2H2       H2NN       N2H3       N2H4    
   1   1.672E+06   4.649E+11  1.531E+17  1.680E+13  1.431E+15  3.226E+17  5.538E+11  1.292E+10  2.034E+08  7.150E+08  2.846E+09
   2   1.617E+06   3.864E+11  1.508E+17  1.438E+13  1.289E+15  3.121E+17  4.882E+11  1.132E+10  1.723E+08  6.163E+08  2.529E+09
   3   1.564E+06   3.173E+11  1.484E+17  1.219E+13  1.155E+15  3.021E+17  4.272E+11  9.854E+09  1.446E+08  5.276E+08  2.238E+09
   4   1.512E+06   2.621E+11  1.460E+17  1.039E+13  1.037E+15  2.922E+17  3.751E+11  8.604E+09  1.219E+08  4.532E+08  1.985E+09
   5   1.462E+06   2.157E+11  1.436E+17  8.822E+12  9.300E+14  2.827E+17  3.286E+11  7.498E+09  1.025E+08  3.883E+08  1.757E+09
   6   1.414E+06   1.770E+11  1.413E+17  7.477E+12  8.330E+14  2.737E+17  2.874E+11  6.525E+09  8.603E+07  3.324E+08  1.556E+09
   7   1.368E+06   1.461E+11  1.389E+17  6.366E+12  7.479E+14  2.647E+17  2.523E+11  5.697E+09  7.250E+07  2.855E+08  1.379E+09
   8   1.323E+06   1.190E+11  1.366E+17  5.368E+12  6.680E+14  2.564E+17  2.197E+11  4.941E+09  6.056E+07  2.434E+08  1.218E+09
   9   1.280E+06   9.763E+10  1.342E+17  4.547E+12  5.983E+14  2.481E+17  1.920E+11  4.299E+09  5.081E+07  2.083E+08  1.078E+09
  10   1.237E+06   7.977E+10  1.319E+17  3.842E+12  5.348E+14  2.402E+17  1.675E+11  3.734E+09  4.253E+07  1.779E+08  9.531E+08
  11   1.176E+06   5.797E+10  1.283E+17  2.946E+12  4.489E+14  2.288E+17  1.351E+11  2.994E+09  3.217E+07  1.390E+08  7.874E+08
  12   1.118E+06   4.222E+10  1.249E+17  2.262E+12  3.774E+14  2.181E+17  1.091E+11  2.407E+09  2.439E+07  1.089E+08  6.520E+08
  13   1.064E+06   3.082E+10  1.214E+17  1.741E+12  3.175E+14  2.079E+17  8.826E+10  1.937E+09  1.854E+07  8.546E+07  5.405E+08
  14   1.011E+06   2.208E+10  1.180E+17  1.321E+12  2.652E+14  1.984E+17  7.063E+10  1.544E+09  1.390E+07  6.638E+07  4.456E+08
  15   9.616E+05   1.585E+10  1.146E+17  1.004E+12  2.216E+14  1.894E+17  5.656E+10  1.233E+09  1.044E+07  5.162E+07  3.676E+08
  16   9.148E+05   1.142E+10  1.114E+17  7.648E+11  1.855E+14  1.807E+17  4.540E+10  9.862E+08  7.868E+06  4.025E+07  3.038E+08
  17   8.697E+05   8.063E+09  1.081E+17  5.737E+11  1.539E+14  1.727E+17  3.600E+10  7.807E+08  5.843E+06  3.103E+07  2.495E+08
  18   8.272E+05   5.778E+09  1.049E+17  4.353E+11  1.285E+14  1.648E+17  2.879E+10  6.228E+08  4.386E+06  2.411E+07  2.058E+08
  19   7.866E+05   4.056E+09  1.017E+17  3.251E+11  1.064E+14  1.575E+17  2.276E+10  4.919E+08  3.246E+06  1.854E+07  1.689E+08
  20   7.480E+05   2.858E+09  9.857E+16  2.435E+11  8.825E+13  1.505E+17  1.802E+10  3.892E+08  2.409E+06  1.429E+07  1.387E+08
  21   7.112E+05   1.995E+09  9.550E+16  1.811E+11  7.292E+13  1.440E+17  1.419E+10  3.066E+08  1.777E+06  1.096E+07  1.137E+08
  22   6.763E+05   1.380E+09  9.249E+16  1.338E+11  6.005E+13  1.378E+17  1.113E+10  2.406E+08  1.304E+06  8.369E+06  9.301E+07
  23   6.433E+05   9.457E+08  8.954E+16  9.809E+10  4.926E+13  1.321E+17  8.674E+09  1.880E+08  9.502E+05  6.362E+06  7.592E+07
  24   6.117E+05   6.508E+08  8.663E+16  7.217E+10  4.048E+13  1.265E+17  6.774E+09  1.471E+08  6.944E+05  4.847E+06  6.204E+07
  25   5.818E+05   4.436E+08  8.380E+16  5.270E+10  3.313E+13  1.213E+17  5.265E+09  1.146E+08  5.046E+05  3.676E+06  5.061E+07
  26   5.533E+05   2.992E+08  8.103E+16  3.820E+10  2.701E+13  1.164E+17  4.068E+09  8.894E+07  3.642E+05  2.774E+06  4.118E+07
  27   5.259E+05   1.998E+08  7.827E+16  2.746E+10  2.192E+13  1.117E+17  3.123E+09  6.861E+07  2.609E+05  2.081E+06  3.339E+07
  28   5.001E+05   1.341E+08  7.562E+16  1.982E+10  1.783E+13  1.073E+17  2.405E+09  5.309E+07  1.877E+05  1.566E+06  2.714E+07
  29   4.756E+05   8.898E+07  7.305E+16  1.418E+10  1.444E+13  1.030E+17  1.841E+09  4.088E+07  1.341E+05  1.172E+06  2.198E+07
  30   4.523E+05   5.944E+07  7.054E+16  1.020E+10  1.172E+13  9.892E+16  1.414E+09  3.157E+07  9.619E+04  8.801E+05  1.785E+07
  31   4.302E+05   3.997E+07  6.811E+16  7.371E+09  9.542E+12  9.493E+16  1.090E+09  2.447E+07  6.931E+04  6.633E+05  1.452E+07
  32   4.092E+05   2.711E+07  6.573E+16  5.364E+09  7.794E+12  9.110E+16  8.429E+08  1.904E+07  5.024E+04  5.026E+05  1.186E+07
  33   3.891E+05   1.819E+07  6.343E+16  3.869E+09  6.336E+12  8.738E+16  6.486E+08  1.474E+07  3.616E+04  3.783E+05  9.634E+06
  34   3.701E+05   1.258E+07  6.115E+16  2.855E+09  5.216E+12  8.375E+16  5.057E+08  1.156E+07  2.653E+04  2.895E+05  7.916E+06
  35   3.520E+05   8.968E+06  5.889E+16  2.158E+09  4.352E+12  8.021E+16  3.999E+08  9.197E+06  1.986E+04  2.256E+05  6.580E+06
  36   3.346E+05   6.481E+06  5.666E+16  1.648E+09  3.649E+12  7.676E+16  3.178E+08  7.355E+06  1.499E+04  1.770E+05  5.491E+06
  37   3.184E+05   4.851E+06  5.449E+16  1.293E+09  3.108E+12  7.345E+16  2.568E+08  5.983E+06  1.159E+04  1.418E+05  4.647E+06
  38   3.028E+05   3.692E+06  5.233E+16  1.028E+09  2.666E+12  7.024E+16  2.089E+08  4.900E+06  9.065E+03  1.147E+05  3.957E+06
  39   2.879E+05   2.795E+06  5.026E+16  8.133E+08  2.281E+12  6.716E+16  1.694E+08  4.003E+06  7.066E+03  9.243E+04  3.361E+06
  40   2.738E+05   2.151E+06  4.826E+16  6.519E+08  1.965E+12  6.417E+16  1.385E+08  3.298E+06  5.576E+03  7.520E+04  2.872E+06
  41   2.603E+05   1.647E+06  4.637E+16  5.201E+08  1.688E+12  6.126E+16  1.131E+08  2.712E+06  4.387E+03  6.092E+04  2.444E+06
  42   2.478E+05   1.254E+06  4.461E+16  4.135E+08  1.447E+12  5.850E+16  9.228E+07  2.228E+06  3.446E+03  4.924E+04  2.078E+06
  43   2.356E+05   9.505E+05  4.289E+16  3.272E+08  1.237E+12  5.578E+16  7.507E+07  1.825E+06  2.696E+03  3.960E+04  1.758E+06
  44   2.240E+05   6.995E+05  4.131E+16  2.531E+08  1.043E+12  5.317E+16  6.035E+07  1.476E+06  2.072E+03  3.131E+04  1.470E+06
  45   2.131E+05   5.231E+05  3.981E+16  1.981E+08  8.847E+11  5.057E+16  4.898E+07  1.203E+06  1.609E+03  2.493E+04  1.233E+06
  46   2.026E+05   3.891E+05  3.837E+16  1.544E+08  7.484E+11  4.805E+16  3.966E+07  9.773E+05  1.245E+03  1.978E+04  1.031E+06
  47   1.928E+05   3.013E+05  3.703E+16  1.241E+08  6.431E+11  4.549E+16  3.284E+07  8.097E+05  9.887E+02  1.600E+04  8.697E+05
  48   1.833E+05   2.317E+05  3.579E+16  9.907E+07  5.495E+11  4.286E+16  2.719E+07  6.683E+05  7.803E+02  1.283E+04  7.271E+05
  49   1.638E+05   1.516E+05  3.331E+16  6.762E+07  4.105E+11  3.676E+16  1.950E+07  4.683E+05  5.087E+02  8.444E+03  5.026E+05
  50   1.481E+05   1.216E+05  3.135E+16  5.409E+07  3.350E+11  3.130E+16  1.583E+07  3.658E+05  3.824E+02  6.225E+03  3.706E+05
  51   1.340E+05   1.095E+05  2.916E+16  4.742E+07  2.894E+11  2.695E+16  1.333E+07  3.007E+05  3.115E+02  4.960E+03  2.912E+05
  52   1.213E+05   1.013E+05  2.703E+16  4.249E+07  2.533E+11  2.325E+16  1.133E+07  2.500E+05  2.582E+02  4.019E+03  2.320E+05
  53   1.097E+05   8.913E+04  2.502E+16  3.663E+07  2.172E+11  2.011E+16  9.374E+06  2.030E+05  2.069E+02  3.169E+03  1.820E+05
  54   9.927E+04   7.615E+04  2.317E+16  3.087E+07  1.838E+11  1.737E+16  7.659E+06  1.625E+05  1.624E+02  2.451E+03  1.408E+05
  55   8.982E+04   6.501E+04  2.143E+16  2.599E+07  1.554E+11  1.502E+16  6.247E+06  1.300E+05  1.274E+02  1.895E+03  1.090E+05
  56   8.125E+04   5.702E+04  1.976E+16  2.236E+07  1.331E+11  1.299E+16  5.144E+06  1.053E+05  1.016E+02  1.489E+03  8.546E+04
  57   7.353E+04   5.286E+04  1.818E+16  2.009E+07  1.169E+11  1.126E+16  4.333E+06  8.741E+04  8.401E+01  1.208E+03  6.861E+04
  58   6.652E+04   4.895E+04  1.671E+16  1.802E+07  1.025E+11  9.742E+15  3.644E+06  7.248E+04  6.930E+01  9.782E+02  5.497E+04
  59   6.020E+04   4.660E+04  1.534E+16  1.653E+07  9.112E+10  8.439E+15  3.101E+06  6.091E+04  5.815E+01  8.050E+02  4.458E+04
  60   5.446E+04   4.215E+04  1.407E+16  1.458E+07  7.931E+10  7.339E+15  2.569E+06  5.002E+04  4.726E+01  6.454E+02  3.566E+04
  61   4.926E+04   3.915E+04  1.289E+16  1.312E+07  6.981E+10  6.374E+15  2.153E+06  4.156E+04  3.901E+01  5.246E+02  2.877E+04
  62   4.460E+04   3.834E+04  1.180E+16  1.230E+07  6.287E+10  5.531E+15  1.851E+06  3.540E+04  3.325E+01  4.389E+02  2.365E+04
  63   4.036E+04   3.962E+04  1.077E+16  1.202E+07  5.788E+10  4.784E+15  1.629E+06  3.084E+04  2.920E+01  3.775E+02  1.977E+04
  64   3.651E+04   4.315E+04  9.822E+15  1.222E+07  5.443E+10  4.125E+15  1.469E+06  2.745E+04  2.638E+01  3.332E+02  1.678E+04
  65   3.303E+04   4.821E+04  8.946E+15  1.267E+07  5.173E+10  3.549E+15  1.340E+06  2.468E+04  2.412E+01  2.979E+02  1.435E+04
  66   2.991E+04   5.239E+04  8.157E+15  1.286E+07  4.861E+10  3.059E+15  1.209E+06  2.193E+04  2.167E+01  2.626E+02  1.216E+04
  67   2.704E+04   5.117E+04  7.443E+15  1.202E+07  4.359E+10  2.641E+15  1.035E+06  1.855E+04  1.823E+01  2.180E+02  9.914E+03
  68   2.448E+04   4.994E+04  6.795E+15  1.123E+07  3.911E+10  2.282E+15  8.875E+05  1.570E+04  1.533E+01  1.810E+02  8.084E+03
  69   2.215E+04   5.133E+04  6.194E+15  1.091E+07  3.582E+10  1.965E+15  7.797E+05  1.356E+04  1.324E+01  1.542E+02  6.690E+03
  70   2.004E+04   5.696E+04  5.634E+15  1.124E+07  3.383E+10  1.681E+15  7.101E+05  1.206E+04  1.190E+01  1.365E+02  5.652E+03
  71   1.815E+04   7.177E+04  5.113E+15  1.275E+07  3.365E+10  1.428E+15  6.875E+05  1.129E+04  1.145E+01  1.291E+02  4.957E+03
  72   1.642E+04   9.230E+04  4.633E+15  1.469E+07  3.370E+10  1.208E+15  6.718E+05  1.062E+04  1.110E+01  1.231E+02  4.359E+03
  73   1.487E+04   1.184E+05  4.197E+15  1.688E+07  3.373E+10  1.022E+15  6.554E+05  9.976E+03  1.073E+01  1.175E+02  3.832E+03
  74   1.346E+04   1.441E+05  3.804E+15  1.865E+07  3.304E+10  8.682E+14  6.232E+05  9.166E+03  1.006E+01  1.094E+02  3.317E+03
  75   1.217E+04   1.630E+05  3.450E+15  1.948E+07  3.144E+10  7.416E+14  5.711E+05  8.180E+03  9.074E+00  9.823E+01  2.815E+03
  76   1.102E+04   1.803E+05  3.130E+15  2.004E+07  2.971E+10  6.371E+14  5.175E+05  7.260E+03  8.112E+00  8.779E+01  2.389E+03
  77   9.969E+03   1.861E+05  2.842E+15  1.956E+07  2.735E+10  5.515E+14  4.524E+05  6.283E+03  6.999E+00  7.608E+01  1.998E+03
  78   9.020E+03   1.836E+05  2.582E+15  1.847E+07  2.478E+10  4.807E+14  3.863E+05  5.360E+03  5.913E+00  6.475E+01  1.658E+03
  79   8.164E+03   1.819E+05  2.346E+15  1.751E+07  2.254E+10  4.208E+14  3.299E+05  4.601E+03  5.025E+00  5.562E+01  1.388E+03
  80   7.385E+03   1.765E+05  2.130E+15  1.634E+07  2.036E+10  3.698E+14  2.781E+05  3.930E+03  4.235E+00  4.750E+01  1.160E+03
  81   6.685E+03   1.804E+05  1.933E+15  1.589E+07  1.884E+10  3.255E+14  2.401E+05  3.446E+03  3.688E+00  4.204E+01  9.919E+02
  82   6.047E+03   1.804E+05  1.752E+15  1.520E+07  1.729E+10  2.875E+14  2.045E+05  3.005E+03  3.182E+00  3.694E+01  8.453E+02
  83   5.474E+03   1.854E+05  1.589E+15  1.486E+07  1.608E+10  2.545E+14  1.764E+05  2.663E+03  2.800E+00  3.318E+01  7.305E+02
  84   4.951E+03   1.818E+05  1.441E+15  1.402E+07  1.468E+10  2.261E+14  1.485E+05  2.322E+03  2.407E+00  2.914E+01  6.237E+02
  85   4.481E+03   1.786E+05  1.307E+15  1.326E+07  1.345E+10  2.016E+14  1.251E+05  2.037E+03  2.082E+00  2.578E+01  5.354E+02
  86   4.055E+03   1.715E+05  1.186E+15  1.233E+07  1.221E+10  1.802E+14  1.042E+05  1.775E+03  1.783E+00  2.259E+01  4.575E+02
  87   3.667E+03   1.608E+05  1.076E+15  1.126E+07  1.098E+10  1.615E+14  8.559E+04  1.537E+03  1.512E+00  1.960E+01  3.889E+02
  88   3.316E+03   1.471E+05  9.771E+14  1.009E+07  9.780E+09  1.450E+14  6.945E+04  1.321E+03  1.268E+00  1.681E+01  3.285E+02
  89   3.001E+03   1.346E+05  8.876E+14  9.049E+06  8.725E+09  1.305E+14  5.642E+04  1.140E+03  1.067E+00  1.447E+01  2.782E+02
  90   2.716E+03   1.232E+05  8.062E+14  8.118E+06  7.786E+09  1.176E+14  4.581E+04  9.863E+02  9.007E-01  1.250E+01  2.360E+02
  91   2.457E+03   1.070E+05  7.328E+14  6.997E+06  6.797E+09  1.062E+14  3.627E+04  8.357E+02  7.394E-01  1.047E+01  1.967E+02
  92   2.222E+03   9.285E+04  6.658E+14  6.026E+06  5.933E+09  9.585E+13  2.867E+04  7.093E+02  6.078E-01  8.781E+00  1.640E+02
  93   2.011E+03   8.044E+04  6.055E+14  5.186E+06  5.181E+09  8.670E+13  2.268E+04  6.033E+02  5.009E-01  7.379E+00  1.369E+02
  94   1.819E+03   6.777E+04  5.507E+14  4.367E+06  4.469E+09  7.847E+13  1.770E+04  5.076E+02  4.066E-01  6.100E+00  1.132E+02
  95   1.646E+03   5.700E+04  5.008E+14  3.673E+06  3.854E+09  7.106E+13  1.379E+04  4.276E+02  3.304E-01  5.045E+00  9.355E+01
  96   1.489E+03   4.782E+04  4.556E+14  3.085E+06  3.320E+09  6.439E+13  1.073E+04  3.604E+02  2.685E-01  4.174E+00  7.728E+01
  97   1.347E+03   4.005E+04  4.143E+14  2.587E+06  2.859E+09  5.836E+13  8.346E+03  3.040E+02  2.184E-01  3.454E+00  6.382E+01
  98   1.219E+03   3.348E+04  3.769E+14  2.167E+06  2.461E+09  5.293E+13  6.484E+03  2.567E+02  1.777E-01  2.860E+00  5.270E+01
  99   1.102E+03   2.714E+04  3.429E+14  1.771E+06  2.090E+09  4.804E+13  4.962E+03  2.141E+02  1.422E-01  2.324E+00  4.301E+01
 100   9.972E+02   2.259E+04  3.120E+14  1.479E+06  1.796E+09  4.362E+13  3.846E+03  1.810E+02  1.158E-01  1.925E+00  3.549E+01
 101   9.018E+02   1.821E+04  2.839E+14  1.205E+06  1.523E+09  3.962E+13  2.936E+03  1.511E+02  9.265E-02  1.563E+00  2.891E+01
 102   8.161E+02   1.508E+04  2.584E+14  1.002E+06  1.306E+09  3.600E+13  2.270E+03  1.278E+02  7.542E-02  1.294E+00  2.381E+01
 103   7.384E+02   1.209E+04  2.352E+14  8.129E+05  1.105E+09  3.274E+13  1.728E+03  1.068E+02  6.032E-02  1.050E+00  1.937E+01
 104   6.676E+02   9.375E+03  2.142E+14  6.425E+05  9.216E+08  2.978E+13  1.295E+03  8.806E+01  4.744E-02  8.345E-01  1.555E+01
 105   6.038E+02   7.236E+03  1.951E+14  5.061E+05  7.670E+08  2.711E+13  9.686E+02  7.257E+01  3.724E-02  6.618E-01  1.246E+01
 106   5.463E+02   5.562E+03  1.777E+14  3.973E+05  6.375E+08  2.468E+13  7.233E+02  5.982E+01  2.921E-02  5.241E-01  9.972E+00
 107   4.941E+02   4.123E+03  1.620E+14  3.034E+05  5.214E+08  2.248E+13  5.310E+02  4.862E+01  2.249E-02  4.057E-01  7.864E+00
 108   4.470E+02   3.039E+03  1.477E+14  2.306E+05  4.255E+08  2.049E+13  3.891E+02  3.949E+01  1.728E-02  3.131E-01  6.186E+00
 109   4.044E+02   2.227E+03  1.347E+14  1.746E+05  3.464E+08  1.868E+13  2.843E+02  3.205E+01  1.325E-02  2.409E-01  4.852E+00
 110   3.656E+02   1.570E+03  1.228E+14  1.282E+05  2.772E+08  1.702E+13  2.039E+02  2.564E+01  9.959E-03  1.808E-01  3.744E+00
 111   3.308E+02   1.136E+03  1.121E+14  9.607E+04  2.244E+08  1.552E+13  1.481E+02  2.076E+01  7.599E-03  1.382E-01  2.915E+00
 112   2.991E+02   7.899E+02  1.022E+14  6.978E+04  1.784E+08  1.414E+13  1.056E+02  1.655E+01  5.678E-03  1.029E-01  2.233E+00
 113   2.705E+02   5.448E+02  9.328E+13  5.038E+04  1.414E+08  1.290E+13  7.498E+01  1.319E+01  4.232E-03  7.634E-02  1.703E+00
 114   2.447E+02   3.729E+02  8.516E+13  3.617E+04  1.118E+08  1.177E+13  5.311E+01  1.049E+01  3.144E-03  5.638E-02  1.294E+00
 115   2.213E+02   2.533E+02  7.773E+13  2.580E+04  8.798E+07  1.073E+13  3.747E+01  8.323E+00  2.328E-03  4.145E-02  9.781E-01
 116   2.001E+02   1.707E+02  7.094E+13  1.830E+04  6.902E+07  9.787E+12  2.633E+01  6.593E+00  1.717E-03  3.034E-02  7.363E-01
 117   1.811E+02   1.142E+02  6.479E+13  1.290E+04  5.397E+07  8.930E+12  1.845E+01  5.215E+00  1.263E-03  2.212E-02  5.520E-01
 118   1.638E+02   7.573E+01  5.916E+13  9.031E+03  4.204E+07  8.147E+12  1.287E+01  4.114E+00  9.247E-04  1.604E-02  4.118E-01
 119   1.482E+02   4.986E+01  5.403E+13  6.288E+03  3.264E+07  7.433E+12  8.952E+00  3.240E+00  6.749E-04  1.159E-02  3.060E-01
 120   1.340E+02   3.260E+01  4.933E+13  4.351E+03  2.525E+07  6.780E+12  6.199E+00  2.546E+00  4.906E-04  8.344E-03  2.264E-01
 121   1.212E+02   2.120E+01  4.504E+13  2.997E+03  1.947E+07  6.184E+12  4.280E+00  1.998E+00  3.556E-04  5.991E-03  1.669E-01
 122   1.096E+02   1.381E+01  4.112E+13  2.065E+03  1.501E+07  5.639E+12  2.952E+00  1.573E+00  2.582E-04  4.320E-03  1.234E-01
 123   9.912E+01   9.246E+00  3.753E+13  1.454E+03  1.172E+07  5.141E+12  2.065E+00  1.249E+00  1.899E-04  3.166E-03  9.186E-02
 124   8.963E+01   6.309E+00  3.425E+13  1.036E+03  9.194E+06  4.685E+12  1.451E+00  1.003E+00  1.412E-04  2.363E-03  6.926E-02
 125   8.112E+01   4.464E+00  3.126E+13  7.589E+02  7.329E+06  4.270E+12  1.038E+00  8.160E-01  1.069E-04  1.806E-03  5.285E-02
 126   7.338E+01   3.270E+00  2.852E+13  5.685E+02  5.906E+06  3.890E+12  7.498E-01  6.768E-01  8.258E-05  1.424E-03  4.127E-02
 127   6.637E+01   2.519E+00  2.601E+13  4.399E+02  4.834E+06  3.542E+12  5.500E-01  5.764E-01  6.556E-05  1.175E-03  3.330E-02
 128   6.001E+01   2.095E+00  2.372E+13  3.579E+02  4.055E+06  3.225E+12  4.134E-01  5.109E-01  5.427E-05  1.039E-03  2.825E-02
 129   5.430E+01   1.899E+00  2.161E+13  3.114E+02  3.531E+06  2.933E+12  3.236E-01  4.662E-01  4.690E-05  9.716E-04  2.466E-02
 130   4.908E+01   1.926E+00  1.969E+13  2.901E+02  3.173E+06  2.667E+12  2.608E-01  4.529E-01  4.314E-05  1.016E-03  2.346E-02
 131   4.441E+01   2.129E+00  1.793E+13  2.892E+02  2.963E+06  2.423E+12  2.190E-01  4.527E-01  4.145E-05  1.125E-03  2.295E-02
 132   4.019E+01   2.554E+00  1.631E+13  3.058E+02  2.856E+06  2.199E+12  1.902E-01  4.667E-01  4.150E-05  1.325E-03  2.330E-02
 133   3.635E+01   3.299E+00  1.483E+13  3.397E+02  2.819E+06  1.995E+12  1.691E-01  4.969E-01  4.317E-05  1.668E-03  2.475E-02
 134   3.288E+01   4.447E+00  1.347E+13  3.899E+02  2.835E+06  1.807E+12  1.533E-01  5.346E-01  4.579E-05  2.157E-03  2.658E-02
 135   2.974E+01   6.250E+00  1.224E+13  4.602E+02  2.890E+06  1.637E+12  1.410E-01  5.847E-01  4.968E-05  2.891E-03  2.931E-02
 136   2.692E+01   8.887E+00  1.112E+13  5.501E+02  2.973E+06  1.483E+12  1.310E-01  6.383E-01  5.413E-05  3.864E-03  3.205E-02
 137   2.433E+01   1.301E+01  1.010E+13  6.664E+02  3.070E+06  1.342E+12  1.219E-01  7.055E-01  5.992E-05  5.336E-03  3.617E-02
 138   1.752E+01   4.651E+01  7.368E+12  1.279E+03  3.455E+06  9.664E+11  9.830E-02  9.669E-01  8.522E-05  1.491E-02  5.331E-02
 139   1.251E+01   1.756E+02  5.348E+12  2.501E+03  3.876E+06  6.893E+11  7.848E-02  1.328E+00  1.273E-04  4.077E-02  8.115E-02
 140   8.952E+00   6.664E+02  3.876E+12  4.971E+03  4.406E+06  4.884E+11  6.410E-02  1.864E+00  1.968E-04  1.010E-01  1.151E-01
 141   6.407E+00   2.655E+03  2.801E+12  1.041E+04  5.173E+06  3.425E+11  5.477E-02  2.837E+00  3.176E-04  2.392E-01  1.535E-01
 142   4.584E+00   1.135E+04  2.018E+12  2.319E+04  6.283E+06  2.372E+11  4.904E-02  4.830E+00  5.369E-04  5.651E-01  1.978E-01
 143   3.283E+00   4.993E+04  1.451E+12  5.341E+04  7.769E+06  1.616E+11  4.559E-02  8.982E+00  9.181E-04  1.304E+00  2.428E-01
 144   2.351E+00   1.968E+05  1.042E+12  1.143E+05  9.215E+06  1.080E+11  4.138E-02  1.633E+01  1.459E-03  2.696E+00  2.720E-01
 145   1.684E+00   7.211E+05  7.495E+11  2.293E+05  1.040E+07  7.020E+10  3.681E-02  2.825E+01  2.187E-03  5.080E+00  2.817E-01
 146   1.207E+00   2.224E+06  5.392E+11  4.038E+05  1.080E+07  4.362E+10  3.143E-02  4.216E+01  2.831E-03  7.992E+00  2.523E-01
 147   8.644E-01   5.356E+06  3.879E+11  5.887E+05  9.914E+06  2.535E+10  2.533E-02  4.955E+01  2.922E-03  9.704E+00  1.839E-01
 148   6.189E-01   9.778E+06  2.789E+11  6.856E+05  7.768E+06  1.319E+10  1.935E-02  4.212E+01  2.218E-03  8.415E+00  1.008E-01
 149   4.433E-01   1.277E+07  2.006E+11  6.065E+05  4.999E+06  5.974E+09  1.391E-02  2.380E+01  1.136E-03  4.817E+00  3.867E-02
 150   3.176E-01   1.263E+07  1.446E+11  4.068E+05  2.557E+06  2.218E+09  9.709E-03  8.394E+00  3.743E-04  1.736E+00  9.471E-03
 151   2.273E-01   9.161E+06  1.044E+11  1.926E+05  9.756E+05  6.186E+08  6.733E-03  1.576E+00  6.935E-05  3.382E-01  1.228E-03
 152   1.626E-01   4.303E+06  7.549E+10  5.742E+04  2.603E+05  1.207E+08  4.687E-03  1.304E-01  6.119E-06  2.928E-02  6.957E-05
 153   1.163E-01   1.220E+06  5.461E+10  1.017E+04  4.673E+04  1.580E+07  3.298E-03  4.292E-03  2.349E-07  1.011E-03  1.564E-06
 154   8.334E-02   2.311E+05  3.956E+10  1.180E+03  5.982E+03  1.489E+06  2.308E-03  6.832E-05  4.984E-09  1.665E-05  1.690E-08
 155   5.961E-02   3.530E+04  2.870E+10  1.071E+02  5.840E+02  1.082E+05  1.602E-03  1.823E-06  3.524E-10  1.688E-07  1.862E-10
