Index   PRESSURE   C2H        C2H2       C2H3       C2H4       C2H5       C2H6       C3H2       C3H3       CH3C2H     CH2CCH2 
   1   1.672E+06   3.104E+10  3.989E+14  2.960E+12  2.893E+14  1.902E+12  3.009E+13  1.303E+08  1.993E+10  4.378E+10  1.990E+10
   2   1.617E+06   2.520E+10  3.619E+14  2.584E+12  2.722E+14  1.717E+12  2.884E+13  1.088E+08  1.712E+10  3.935E+10  1.784E+10
   3   1.564E+06   2.014E+10  3.260E+14  2.236E+12  2.552E+14  1.542E+12  2.762E+13  8.951E+07  1.454E+10  3.511E+10  1.587E+10
   4   1.512E+06   1.621E+10  2.945E+14  1.942E+12  2.395E+14  1.388E+12  2.645E+13  7.412E+07  1.241E+10  3.142E+10  1.417E+10
   5   1.462E+06   1.299E+10  2.654E+14  1.682E+12  2.245E+14  1.247E+12  2.531E+13  6.110E+07  1.055E+10  2.804E+10  1.261E+10
   6   1.414E+06   1.035E+10  2.386E+14  1.452E+12  2.103E+14  1.118E+12  2.423E+13  5.012E+07  8.938E+09  2.496E+10  1.119E+10
   7   1.368E+06   8.320E+09  2.153E+14  1.260E+12  1.972E+14  1.005E+12  2.320E+13  4.140E+07  7.612E+09  2.230E+10  9.974E+09
   8   1.323E+06   6.570E+09  1.926E+14  1.082E+12  1.841E+14  8.986E+11  2.218E+13  3.365E+07  6.398E+09  1.974E+10  8.804E+09
   9   1.280E+06   5.230E+09  1.729E+14  9.329E+11  1.723E+14  8.053E+11  2.122E+13  2.755E+07  5.409E+09  1.755E+10  7.803E+09
  10   1.237E+06   4.145E+09  1.549E+14  8.025E+11  1.610E+14  7.205E+11  2.029E+13  2.247E+07  4.558E+09  1.556E+10  6.900E+09
  11   1.176E+06   2.859E+09  1.299E+14  6.315E+11  1.445E+14  6.045E+11  1.893E+13  1.619E+07  3.464E+09  1.283E+10  5.664E+09
  12   1.118E+06   1.974E+09  1.089E+14  4.971E+11  1.298E+14  5.075E+11  1.767E+13  1.167E+07  2.633E+09  1.058E+10  4.651E+09
  13   1.064E+06   1.367E+09  9.137E+13  3.920E+11  1.166E+14  4.265E+11  1.650E+13  8.428E+06  2.004E+09  8.733E+09  3.822E+09
  14   1.011E+06   9.215E+08  7.565E+13  3.042E+11  1.040E+14  3.551E+11  1.537E+13  5.934E+06  1.495E+09  7.104E+09  3.094E+09
  15   9.616E+05   6.228E+08  6.266E+13  2.363E+11  9.277E+13  2.957E+11  1.431E+13  4.185E+06  1.116E+09  5.781E+09  2.507E+09
  16   9.148E+05   4.221E+08  5.196E+13  1.837E+11  8.278E+13  2.464E+11  1.332E+13  2.958E+06  8.342E+08  4.708E+09  2.032E+09
  17   8.697E+05   2.782E+08  4.249E+13  1.406E+11  7.335E+13  2.033E+11  1.239E+13  2.037E+06  6.104E+08  3.777E+09  1.623E+09
  18   8.272E+05   1.869E+08  3.505E+13  1.087E+11  6.521E+13  1.687E+11  1.150E+13  1.426E+06  4.528E+08  3.057E+09  1.307E+09
  19   7.866E+05   1.220E+08  2.848E+13  8.258E+10  5.757E+13  1.386E+11  1.067E+13  9.712E+05  3.283E+08  2.436E+09  1.036E+09
  20   7.480E+05   7.993E+07  2.318E+13  6.285E+10  5.082E+13  1.140E+11  9.896E+12  6.634E+05  2.386E+08  1.943E+09  8.227E+08
  21   7.112E+05   5.165E+07  1.873E+13  4.744E+10  4.470E+13  9.323E+10  9.162E+12  4.472E+05  1.715E+08  1.537E+09  6.479E+08
  22   6.763E+05   3.292E+07  1.502E+13  3.551E+10  3.917E+13  7.590E+10  8.476E+12  2.974E+05  1.219E+08  1.207E+09  5.060E+08
  23   6.433E+05   2.067E+07  1.195E+13  2.633E+10  3.417E+13  6.145E+10  7.830E+12  1.947E+05  8.556E+07  9.387E+08  3.916E+08
  24   6.117E+05   1.305E+07  9.525E+12  1.958E+10  2.982E+13  4.979E+10  7.229E+12  1.281E+05  6.026E+07  7.315E+08  3.036E+08
  25   5.818E+05   8.106E+06  7.529E+12  1.441E+10  2.590E+13  4.011E+10  6.662E+12  8.296E+04  4.189E+07  5.646E+08  2.332E+08
  26   5.533E+05   4.962E+06  5.903E+12  1.051E+10  2.241E+13  3.213E+10  6.131E+12  5.294E+04  2.877E+07  4.321E+08  1.775E+08
  27   5.259E+05   2.991E+06  4.590E+12  7.592E+09  1.929E+13  2.557E+10  5.629E+12  3.327E+04  1.951E+07  3.275E+08  1.338E+08
  28   5.001E+05   1.813E+06  3.577E+12  5.501E+09  1.662E+13  2.039E+10  5.169E+12  2.101E+04  1.327E+07  2.489E+08  1.011E+08
  29   4.756E+05   1.081E+06  2.762E+12  3.944E+09  1.425E+13  1.615E+10  4.737E+12  1.304E+04  8.906E+06  1.871E+08  7.561E+07
  30   4.523E+05   6.493E+05  2.140E+12  2.839E+09  1.223E+13  1.283E+10  4.340E+12  8.156E+03  6.011E+06  1.412E+08  5.676E+07
  31   4.302E+05   3.934E+05  1.665E+12  2.054E+09  1.052E+13  1.021E+10  3.975E+12  5.140E+03  4.082E+06  1.070E+08  4.278E+07
  32   4.092E+05   2.408E+05  1.302E+12  1.495E+09  9.057E+12  8.152E+09  3.641E+12  3.268E+03  2.792E+06  8.147E+07  3.240E+07
  33   3.891E+05   1.453E+05  1.009E+12  1.078E+09  7.766E+12  6.471E+09  3.328E+12  2.050E+03  1.887E+06  6.148E+07  2.432E+07
  34   3.701E+05   9.121E+04  7.988E+11  7.953E+08  6.724E+12  5.205E+09  3.047E+12  1.335E+03  1.316E+06  4.741E+07  1.867E+07
  35   3.520E+05   5.968E+04  6.457E+11  6.019E+08  5.880E+12  4.246E+09  2.795E+12  9.044E+02  9.480E+05  3.740E+07  1.466E+07
  36   3.346E+05   3.979E+04  5.271E+11  4.605E+08  5.169E+12  3.486E+09  2.567E+12  6.246E+02  6.936E+05  2.983E+07  1.164E+07
  37   3.184E+05   2.779E+04  4.406E+11  3.623E+08  4.596E+12  2.910E+09  2.364E+12  4.508E+02  5.259E+05  2.439E+07  9.481E+06
  38   3.028E+05   1.984E+04  3.726E+11  2.889E+08  4.110E+12  2.446E+09  2.179E+12  3.327E+02  4.062E+05  2.021E+07  7.826E+06
  39   2.879E+05   1.408E+04  3.140E+11  2.294E+08  3.668E+12  2.051E+09  2.007E+12  2.438E+02  3.121E+05  1.668E+07  6.432E+06
  40   2.738E+05   1.022E+04  2.677E+11  1.847E+08  3.293E+12  1.734E+09  1.851E+12  1.827E+02  2.441E+05  1.393E+07  5.357E+06
  41   2.603E+05   7.370E+03  2.276E+11  1.481E+08  2.952E+12  1.462E+09  1.707E+12  1.361E+02  1.899E+05  1.161E+07  4.445E+06
  42   2.478E+05   5.276E+03  1.926E+11  1.183E+08  2.641E+12  1.231E+09  1.574E+12  1.006E+02  1.469E+05  9.622E+06  3.672E+06
  43   2.356E+05   3.757E+03  1.626E+11  9.412E+07  2.358E+12  1.033E+09  1.449E+12  7.399E+01  1.131E+05  7.952E+06  3.024E+06
  44   2.240E+05   2.573E+03  1.344E+11  7.312E+07  2.084E+12  8.553E+08  1.331E+12  5.237E+01  8.444E+04  6.427E+06  2.434E+06
  45   2.131E+05   1.805E+03  1.126E+11  5.765E+07  1.853E+12  7.142E+08  1.224E+12  3.795E+01  6.424E+04  5.265E+06  1.986E+06
  46   2.026E+05   1.259E+03  9.397E+10  4.528E+07  1.645E+12  5.949E+08  1.125E+12  2.735E+01  4.865E+04  4.299E+06  1.616E+06
  47   1.928E+05   9.318E+02  8.093E+10  3.689E+07  1.484E+12  5.064E+08  1.039E+12  2.088E+01  3.864E+04  3.632E+06  1.360E+06
  48   1.833E+05   6.866E+02  6.950E+10  2.995E+07  1.336E+12  4.300E+08  9.581E+11  1.587E+01  3.057E+04  3.059E+06  1.142E+06
  49   1.638E+05   4.451E+02  5.641E+10  2.188E+07  1.130E+12  3.259E+08  8.135E+11  1.097E+01  2.214E+04  2.404E+06  8.926E+05
  50   1.481E+05   3.859E+02  5.321E+10  1.917E+07  1.038E+12  2.776E+08  7.146E+11  1.001E+01  2.019E+04  2.226E+06  8.247E+05
  51   1.340E+05   3.844E+02  5.394E+10  1.827E+07  9.877E+11  2.481E+08  6.330E+11  1.046E+01  2.056E+04  2.230E+06  8.250E+05
  52   1.213E+05   3.960E+02  5.562E+10  1.777E+07  9.476E+11  2.243E+08  5.615E+11  1.128E+01  2.149E+04  2.274E+06  8.403E+05
  53   1.097E+05   3.790E+02  5.515E+10  1.651E+07  8.907E+11  1.973E+08  4.947E+11  1.131E+01  2.116E+04  2.220E+06  8.193E+05
  54   9.927E+04   3.490E+02  5.356E+10  1.498E+07  8.281E+11  1.712E+08  4.343E+11  1.092E+01  2.019E+04  2.119E+06  7.805E+05
  55   8.982E+04   3.204E+02  5.189E+10  1.355E+07  7.683E+11  1.481E+08  3.808E+11  1.051E+01  1.918E+04  2.015E+06  7.408E+05
  56   8.125E+04   3.039E+02  5.109E+10  1.250E+07  7.178E+11  1.295E+08  3.338E+11  1.042E+01  1.869E+04  1.950E+06  7.155E+05
  57   7.353E+04   3.086E+02  5.203E+10  1.200E+07  6.809E+11  1.157E+08  2.929E+11  1.103E+01  1.917E+04  1.952E+06  7.158E+05
  58   6.652E+04   3.125E+02  5.283E+10  1.148E+07  6.438E+11  1.030E+08  2.561E+11  1.161E+01  1.958E+04  1.946E+06  7.130E+05
  59   6.020E+04   3.263E+02  5.438E+10  1.118E+07  6.114E+11  9.249E+07  2.234E+11  1.257E+01  2.042E+04  1.966E+06  7.195E+05
  60   5.446E+04   3.161E+02  5.378E+10  1.038E+07  5.687E+11  8.071E+07  1.936E+11  1.263E+01  2.003E+04  1.899E+06  6.942E+05
  61   4.926E+04   3.154E+02  5.386E+10  9.798E+06  5.305E+11  7.088E+07  1.670E+11  1.303E+01  2.005E+04  1.855E+06  6.775E+05
  62   4.460E+04   3.358E+02  5.553E+10  9.584E+06  5.002E+11  6.339E+07  1.437E+11  1.424E+01  2.098E+04  1.864E+06  6.805E+05
  63   4.036E+04   3.804E+02  5.879E+10  9.681E+06  4.744E+11  5.738E+07  1.224E+11  1.642E+01  2.286E+04  1.915E+06  6.994E+05
  64   3.651E+04   4.572E+02  6.369E+10  1.007E+07  4.516E+11  5.248E+07  1.031E+11  1.989E+01  2.582E+04  2.004E+06  7.327E+05
  65   3.303E+04   5.605E+02  6.918E+10  1.053E+07  4.269E+11  4.783E+07  8.558E+10  2.436E+01  2.931E+04  2.089E+06  7.648E+05
  66   2.991E+04   6.554E+02  7.302E+10  1.068E+07  3.963E+11  4.268E+07  7.037E+10  2.834E+01  3.183E+04  2.103E+06  7.708E+05
  67   2.704E+04   6.616E+02  7.132E+10  9.887E+06  3.535E+11  3.607E+07  5.718E+10  2.858E+01  3.071E+04  1.947E+06  7.133E+05
  68   2.448E+04   6.597E+02  6.887E+10  9.056E+06  3.119E+11  3.019E+07  4.601E+10  2.831E+01  2.913E+04  1.772E+06  6.490E+05
  69   2.215E+04   6.925E+02  6.758E+10  8.479E+06  2.744E+11  2.534E+07  3.636E+10  2.912E+01  2.832E+04  1.625E+06  5.955E+05
  70   2.004E+04   7.833E+02  6.776E+10  8.187E+06  2.395E+11  2.133E+07  2.789E+10  3.162E+01  2.851E+04  1.503E+06  5.513E+05
  71   1.815E+04   1.012E+03  7.122E+10  8.417E+06  2.092E+11  1.826E+07  2.067E+10  3.813E+01  3.088E+04  1.434E+06  5.277E+05
  72   1.642E+04   1.299E+03  7.318E+10  8.479E+06  1.771E+11  1.518E+07  1.473E+10  4.472E+01  3.234E+04  1.313E+06  4.847E+05
  73   1.487E+04   1.619E+03  7.316E+10  8.308E+06  1.460E+11  1.230E+07  1.025E+10  5.029E+01  3.252E+04  1.156E+06  4.279E+05
  74   1.346E+04   1.852E+03  6.963E+10  7.701E+06  1.168E+11  9.605E+06  7.017E+09  5.180E+01  3.033E+04  9.598E+05  3.562E+05
  75   1.217E+04   1.911E+03  6.284E+10  6.707E+06  9.114E+10  7.240E+06  4.782E+09  4.828E+01  2.608E+04  7.535E+05  2.801E+05
  76   1.102E+04   1.908E+03  5.586E+10  5.738E+06  7.074E+10  5.412E+06  3.269E+09  4.368E+01  2.191E+04  5.829E+05  2.170E+05
  77   9.969E+03   1.743E+03  4.776E+10  4.681E+06  5.423E+10  3.959E+06  2.251E+09  3.654E+01  1.733E+04  4.350E+05  1.620E+05
  78   9.020E+03   1.501E+03  3.977E+10  3.697E+06  4.123E+10  2.854E+06  1.560E+09  2.900E+01  1.316E+04  3.168E+05  1.179E+05
  79   8.164E+03   1.297E+03  3.325E+10  2.932E+06  3.148E+10  2.067E+06  1.085E+09  2.315E+01  1.005E+04  2.321E+05  8.638E+04
  80   7.385E+03   1.083E+03  2.728E+10  2.274E+06  2.379E+10  1.477E+06  7.524E+08  1.785E+01  7.462E+03  1.666E+05  6.194E+04
  81   6.685E+03   9.625E+02  2.307E+10  1.830E+06  1.822E+10  1.076E+06  5.216E+08  1.460E+01  5.805E+03  1.233E+05  4.585E+04
  82   6.047E+03   8.271E+02  1.917E+10  1.443E+06  1.382E+10  7.738E+05  3.603E+08  1.155E+01  4.395E+03  8.951E+04  3.327E+04
  83   5.474E+03   7.363E+02  1.624E+10  1.162E+06  1.059E+10  5.644E+05  2.501E+08  9.463E+00  3.426E+03  6.639E+04  2.468E+04
  84   4.951E+03   6.180E+02  1.340E+10  9.071E+05  8.052E+09  4.054E+05  1.743E+08  7.361E+00  2.565E+03  4.806E+04  1.785E+04
  85   4.481E+03   5.245E+02  1.119E+10  7.162E+05  6.197E+09  2.950E+05  1.231E+08  5.825E+00  1.955E+03  3.541E+04  1.315E+04
  86   4.055E+03   4.360E+02  9.304E+09  5.618E+05  4.795E+09  2.151E+05  8.801E+07  4.553E+00  1.480E+03  2.615E+04  9.696E+03
  87   3.667E+03   3.569E+02  7.749E+09  4.397E+05  3.746E+09  1.578E+05  6.397E+07  3.542E+00  1.122E+03  1.948E+04  7.217E+03
  88   3.316E+03   2.873E+02  6.454E+09  3.431E+05  2.955E+09  1.165E+05  4.727E+07  2.738E+00  8.507E+02  1.464E+04  5.416E+03
  89   3.001E+03   2.353E+02  5.477E+09  2.729E+05  2.377E+09  8.776E+04  3.566E+07  2.175E+00  6.629E+02  1.132E+04  4.179E+03
  90   2.716E+03   1.965E+02  4.741E+09  2.214E+05  1.952E+09  6.744E+04  2.746E+07  1.780E+00  5.324E+02  9.018E+03  3.325E+03
  91   2.457E+03   1.555E+02  4.027E+09  1.752E+05  1.603E+09  5.150E+04  2.146E+07  1.398E+00  4.153E+02  7.102E+03  2.612E+03
  92   2.222E+03   1.252E+02  3.484E+09  1.411E+05  1.340E+09  4.003E+04  1.707E+07  1.127E+00  3.329E+02  5.746E+03  2.109E+03
  93   2.011E+03   1.022E+02  3.059E+09  1.154E+05  1.140E+09  3.163E+04  1.383E+07  9.285E-01  2.727E+02  4.759E+03  1.742E+03
  94   1.819E+03   8.140E+01  2.673E+09  9.350E+04  9.735E+08  2.501E+04  1.133E+07  7.541E-01  2.217E+02  3.944E+03  1.440E+03
  95   1.646E+03   6.553E+01  2.363E+09  7.666E+04  8.420E+08  2.004E+04  9.416E+06  6.231E-01  1.834E+02  3.330E+03  1.213E+03
  96   1.489E+03   5.315E+01  2.108E+09  6.342E+04  7.357E+08  1.621E+04  7.909E+06  5.217E-01  1.537E+02  2.853E+03  1.036E+03
  97   1.347E+03   4.340E+01  1.896E+09  5.288E+04  6.489E+08  1.322E+04  6.707E+06  4.422E-01  1.305E+02  2.476E+03  8.968E+02
  98   1.219E+03   3.557E+01  1.715E+09  4.434E+04  5.759E+08  1.086E+04  5.730E+06  3.778E-01  1.118E+02  2.169E+03  7.834E+02
  99   1.102E+03   2.815E+01  1.528E+09  3.647E+04  5.088E+08  8.835E+03  4.911E+06  3.133E-01  9.344E+01  1.873E+03  6.747E+02
 100   9.972E+02   2.317E+01  1.393E+09  3.080E+04  4.561E+08  7.323E+03  4.245E+06  2.709E-01  8.097E+01  1.663E+03  5.974E+02
 101   9.018E+02   1.835E+01  1.247E+09  2.544E+04  4.059E+08  6.000E+03  3.671E+06  2.263E-01  6.820E+01  1.451E+03  5.193E+02
 102   8.161E+02   1.512E+01  1.142E+09  2.156E+04  3.662E+08  5.001E+03  3.198E+06  1.971E-01  5.945E+01  1.298E+03  4.636E+02
 103   7.384E+02   1.193E+01  1.023E+09  1.782E+04  3.270E+08  4.109E+03  2.782E+06  1.650E-01  5.015E+01  1.136E+03  4.043E+02
 104   6.676E+02   9.004E+00  8.957E+08  1.433E+04  2.887E+08  3.322E+03  2.413E+06  1.328E-01  4.083E+01  9.701E+02  3.440E+02
 105   6.038E+02   6.761E+00  7.828E+08  1.150E+04  2.548E+08  2.686E+03  2.096E+06  1.067E-01  3.314E+01  8.269E+02  2.921E+02
 106   5.463E+02   5.046E+00  6.822E+08  9.195E+03  2.248E+08  2.169E+03  1.822E+06  8.555E-02  2.679E+01  7.034E+02  2.475E+02
 107   4.941E+02   3.584E+00  5.792E+08  7.132E+03  1.956E+08  1.719E+03  1.577E+06  6.581E-02  2.081E+01  5.813E+02  2.037E+02
 108   4.470E+02   2.525E+00  4.900E+08  5.509E+03  1.700E+08  1.360E+03  1.366E+06  5.059E-02  1.607E+01  4.786E+02  1.670E+02
 109   4.044E+02   1.765E+00  4.125E+08  4.233E+03  1.473E+08  1.073E+03  1.183E+06  3.892E-02  1.233E+01  3.921E+02  1.362E+02
 110   3.656E+02   1.170E+00  3.378E+08  3.149E+03  1.259E+08  8.298E+02  1.019E+06  2.887E-02  9.061E+00  3.116E+02  1.077E+02
 111   3.308E+02   8.035E-01  2.817E+08  2.392E+03  1.085E+08  6.502E+02  8.803E+05  2.239E-02  6.851E+00  2.527E+02  8.698E+01
 112   2.991E+02   5.224E-01  2.283E+08  1.758E+03  9.223E+07  4.993E+02  7.572E+05  1.683E-02  4.956E+00  1.985E+02  6.800E+01
 113   2.705E+02   3.357E-01  1.838E+08  1.283E+03  7.808E+07  3.818E+02  6.505E+05  1.279E-02  3.550E+00  1.549E+02  5.279E+01
 114   2.447E+02   2.133E-01  1.472E+08  9.296E+02  6.593E+07  2.910E+02  5.589E+05  9.854E-03  2.521E+00  1.201E+02  4.071E+01
 115   2.213E+02   1.342E-01  1.171E+08  6.695E+02  5.552E+07  2.208E+02  4.795E+05  7.720E-03  1.776E+00  9.250E+01  3.121E+01
 116   2.001E+02   8.345E-02  9.271E+07  4.788E+02  4.660E+07  1.669E+02  4.110E+05  6.153E-03  1.239E+00  7.083E+01  2.377E+01
 117   1.811E+02   5.130E-02  7.295E+07  3.402E+02  3.900E+07  1.258E+02  3.522E+05  4.983E-03  8.566E-01  5.385E+01  1.798E+01
 118   1.638E+02   3.120E-02  5.705E+07  2.401E+02  3.255E+07  9.440E+01  3.017E+05  4.099E-03  5.869E-01  4.070E+01  1.351E+01
 119   1.482E+02   1.878E-02  4.441E+07  1.685E+02  2.712E+07  7.068E+01  2.585E+05  3.420E-03  3.991E-01  3.058E+01  1.010E+01
 120   1.340E+02   1.120E-02  3.441E+07  1.176E+02  2.256E+07  5.278E+01  2.216E+05  2.886E-03  2.693E-01  2.286E+01  7.508E+00
 121   1.212E+02   6.637E-03  2.663E+07  8.205E+01  1.879E+07  3.952E+01  1.907E+05  2.467E-03  1.812E-01  1.706E+01  5.573E+00
 122   1.096E+02   3.941E-03  2.070E+07  5.755E+01  1.576E+07  2.985E+01  1.655E+05  2.141E-03  1.224E-01  1.277E+01  4.149E+00
 123   9.912E+01   2.433E-03  1.641E+07  4.129E+01  1.334E+07  2.280E+01  1.438E+05  1.913E-03  8.521E-02  9.775E+00  3.159E+00
 124   8.963E+01   1.540E-03  1.328E+07  3.045E+01  1.154E+07  1.796E+01  1.278E+05  1.757E-03  6.095E-02  7.635E+00  2.455E+00
 125   8.112E+01   1.035E-03  1.115E+07  2.342E+01  1.024E+07  1.458E+01  1.153E+05  1.684E-03  4.588E-02  6.205E+00  1.986E+00
 126   7.338E+01   7.346E-04  9.800E+06  1.905E+01  9.507E+06  1.254E+01  1.088E+05  1.695E-03  3.654E-02  5.272E+00  1.681E+00
 127   6.637E+01   5.604E-04  9.123E+06  1.669E+01  9.359E+06  1.164E+01  1.089E+05  1.814E-03  3.133E-02  4.742E+00  1.506E+00
 128   6.001E+01   4.672E-04  9.067E+06  1.600E+01  9.829E+06  1.185E+01  1.166E+05  2.081E-03  2.942E-02  4.551E+00  1.442E+00
 129   5.430E+01   4.401E-04  9.625E+06  1.670E+01  1.081E+07  1.277E+01  1.280E+05  2.558E-03  3.051E-02  4.697E+00  1.486E+00
 130   4.908E+01   4.405E-04  1.063E+07  1.887E+01  1.246E+07  1.515E+01  1.503E+05  3.284E-03  3.409E-02  5.024E+00  1.589E+00
 131   4.441E+01   4.823E-04  1.213E+07  2.244E+01  1.453E+07  1.836E+01  1.745E+05  4.365E-03  4.071E-02  5.588E+00  1.770E+00
 132   4.019E+01   5.577E-04  1.403E+07  2.762E+01  1.696E+07  2.267E+01  2.007E+05  5.896E-03  5.076E-02  6.321E+00  2.007E+00
 133   3.635E+01   6.598E-04  1.619E+07  3.465E+01  1.968E+07  2.855E+01  2.300E+05  7.972E-03  6.480E-02  7.138E+00  2.274E+00
 134   3.288E+01   7.993E-04  1.858E+07  4.367E+01  2.247E+07  3.553E+01  2.560E+05  1.074E-02  8.364E-02  8.040E+00  2.574E+00
 135   2.974E+01   9.703E-04  2.110E+07  5.496E+01  2.528E+07  4.420E+01  2.810E+05  1.434E-02  1.083E-01  8.960E+00  2.886E+00
 136   2.692E+01   1.186E-03  2.366E+07  6.850E+01  2.787E+07  5.357E+01  2.982E+05  1.892E-02  1.394E-01  9.896E+00  3.209E+00
 137   2.433E+01   1.411E-03  2.599E+07  8.442E+01  3.030E+07  6.530E+01  3.161E+05  2.450E-02  1.771E-01  1.067E+01  3.488E+00
 138   1.752E+01   2.344E-03  3.239E+07  1.541E+02  3.603E+07  1.129E+02  3.401E+05  5.265E-02  3.591E-01  1.255E+01  4.269E+00
 139   1.251E+01   3.265E-03  3.451E+07  2.445E+02  3.712E+07  1.763E+02  3.253E+05  9.881E-02  6.325E-01  1.255E+01  4.583E+00
 140   8.952E+00   4.497E-03  3.468E+07  3.490E+02  3.361E+07  2.359E+02  2.644E+05  1.774E-01  1.065E+00  1.201E+01  4.825E+00
 141   6.407E+00   6.875E-03  3.550E+07  4.778E+02  2.784E+07  2.817E+02  1.879E+05  3.296E-01  1.882E+00  1.190E+01  5.320E+00
 142   4.584E+00   1.224E-02  3.910E+07  6.576E+02  2.206E+07  3.193E+02  1.245E+05  6.656E-01  3.695E+00  1.284E+01  6.388E+00
 143   3.283E+00   2.645E-02  4.881E+07  9.303E+02  1.730E+07  3.502E+02  8.017E+04  1.522E+00  8.320E+00  1.577E+01  8.587E+00
 144   2.351E+00   6.216E-02  6.708E+07  1.288E+03  1.359E+07  3.672E+02  5.209E+04  3.825E+00  1.977E+01  2.114E+01  1.234E+01
 145   1.684E+00   1.537E-01  1.002E+08  1.774E+03  1.083E+07  3.876E+02  3.531E+04  1.047E+01  4.953E+01  3.029E+01  1.880E+01
 146   1.207E+00   3.794E-01  1.557E+08  2.359E+03  8.684E+06  3.897E+02  2.382E+04  3.117E+01  1.243E+02  4.431E+01  2.874E+01
 147   8.644E-01   8.670E-01  2.371E+08  2.932E+03  6.891E+06  3.594E+02  1.539E+04  1.036E+02  3.089E+02  6.260E+01  4.164E+01
 148   6.189E-01   1.815E+00  3.467E+08  3.403E+03  5.380E+06  3.023E+02  9.309E+03  4.021E+02  8.321E+02  8.537E+01  5.687E+01
 149   4.433E-01   3.308E+00  4.678E+08  3.581E+03  4.054E+06  2.266E+02  5.223E+03  1.624E+03  2.373E+03  1.130E+02  7.295E+01
 150   3.176E-01   5.342E+00  5.894E+08  3.509E+03  2.934E+06  1.595E+02  2.857E+03  6.733E+03  7.373E+03  1.577E+02  9.563E+01
 151   2.273E-01   7.813E+00  7.012E+08  3.266E+03  2.033E+06  1.072E+02  1.586E+03  2.949E+04  2.539E+04  2.576E+02  1.434E+02
 152   1.626E-01   1.068E+01  7.937E+08  2.908E+03  1.348E+06  6.702E+01  9.007E+02  1.307E+05  8.999E+04  5.015E+02  2.714E+02
 153   1.163E-01   1.419E+01  8.699E+08  2.548E+03  8.751E+05  3.896E+01  5.104E+02  5.466E+05  3.014E+05  1.019E+03  5.303E+02
 154   8.334E-02   1.775E+01  9.174E+08  2.286E+03  5.878E+05  2.198E+01  2.742E+02  1.964E+06  8.640E+05  1.900E+03  1.001E+03
 155   5.961E-02   2.081E+01  9.269E+08  2.170E+03  4.208E+05  1.220E+01  1.257E+02  5.744E+06  2.001E+06  2.966E+03  1.629E+03
