Index   PRESSURE   H          HE         H2         C          CH         1CH2       3CH2       CH3        CH4        C2      
   1   1.672E+06   4.005E+18  7.551E+20  3.895E+21  4.362E+09  1.687E+11  4.684E+12  5.630E+13  3.213E+16  1.806E+18  6.780E+05
   2   1.617E+06   3.644E+18  7.364E+20  3.799E+21  3.378E+09  1.347E+11  3.929E+12  4.792E+13  2.947E+16  1.767E+18  5.098E+05
   3   1.564E+06   3.296E+18  7.181E+20  3.704E+21  2.569E+09  1.059E+11  3.258E+12  4.035E+13  2.692E+16  1.729E+18  3.752E+05
   4   1.512E+06   2.990E+18  7.003E+20  3.612E+21  1.970E+09  8.390E+10  2.716E+12  3.415E+13  2.463E+16  1.691E+18  2.789E+05
   5   1.462E+06   2.708E+18  6.828E+20  3.522E+21  1.503E+09  6.615E+10  2.257E+12  2.881E+13  2.250E+16  1.654E+18  2.060E+05
   6   1.414E+06   2.450E+18  6.659E+20  3.435E+21  1.141E+09  5.192E+10  1.869E+12  2.423E+13  2.053E+16  1.618E+18  1.511E+05
   7   1.368E+06   2.222E+18  6.494E+20  3.350E+21  8.737E+08  4.108E+10  1.557E+12  2.048E+13  1.877E+16  1.583E+18  1.120E+05
   8   1.323E+06   2.004E+18  6.333E+20  3.267E+21  6.559E+08  3.196E+10  1.281E+12  1.712E+13  1.708E+16  1.549E+18  8.113E+04
   9   1.280E+06   1.812E+18  6.176E+20  3.186E+21  4.972E+08  2.506E+10  1.060E+12  1.439E+13  1.557E+16  1.516E+18  5.942E+04
  10   1.237E+06   1.637E+18  6.022E+20  3.107E+21  3.750E+08  1.957E+10  8.741E+11  1.206E+13  1.418E+16  1.483E+18  4.325E+04
  11   1.176E+06   1.394E+18  5.797E+20  2.991E+21  2.395E+08  1.321E+10  6.442E+11  9.107E+12  1.223E+16  1.435E+18  2.604E+04
  12   1.118E+06   1.188E+18  5.583E+20  2.880E+21  1.532E+08  8.940E+09  4.755E+11  6.889E+12  1.056E+16  1.390E+18  1.571E+04
  13   1.064E+06   1.015E+18  5.377E+20  2.774E+21  9.839E+07  6.067E+09  3.518E+11  5.221E+12  9.128E+15  1.345E+18  9.511E+03
  14   1.011E+06   8.588E+17  5.179E+20  2.672E+21  6.133E+07  4.015E+09  2.554E+11  3.890E+12  7.825E+15  1.303E+18  5.553E+03
  15   9.616E+05   7.278E+17  4.988E+20  2.574E+21  3.836E+07  2.664E+09  1.858E+11  2.902E+12  6.711E+15  1.262E+18  3.255E+03
  16   9.148E+05   6.177E+17  4.805E+20  2.479E+21  2.409E+07  1.774E+09  1.355E+11  2.171E+12  5.762E+15  1.222E+18  1.915E+03
  17   8.697E+05   5.196E+17  4.628E+20  2.388E+21  1.465E+07  1.150E+09  9.686E+10  1.594E+12  4.905E+15  1.184E+18  1.085E+03
  18   8.272E+05   4.400E+17  4.456E+20  2.299E+21  9.122E+06  7.601E+08  7.020E+10  1.185E+12  4.197E+15  1.146E+18  6.313E+02
  19   7.866E+05   3.691E+17  4.292E+20  2.215E+21  5.495E+06  4.887E+08  4.987E+10  8.650E+11  3.561E+15  1.110E+18  3.530E+02
  20   7.480E+05   3.102E+17  4.134E+20  2.133E+21  3.327E+06  3.155E+08  3.552E+10  6.328E+11  3.025E+15  1.075E+18  1.985E+02
  21   7.112E+05   2.596E+17  3.981E+20  2.054E+21  1.985E+06  2.012E+08  2.507E+10  4.590E+11  2.558E+15  1.041E+18  1.096E+02
  22   6.763E+05   2.164E+17  3.835E+20  1.979E+21  1.167E+06  1.267E+08  1.752E+10  3.300E+11  2.155E+15  1.008E+18  5.937E+01
  23   6.433E+05   1.796E+17  3.696E+20  1.907E+21  6.746E+05  7.866E+07  1.213E+10  2.351E+11  1.807E+15  9.766E+17  3.151E+01
  24   6.117E+05   1.494E+17  3.560E+20  1.837E+21  3.926E+05  4.912E+07  8.423E+09  1.680E+11  1.517E+15  9.454E+17  1.686E+01
  25   5.818E+05   1.237E+17  3.430E+20  1.770E+21  2.248E+05  3.024E+07  5.791E+09  1.189E+11  1.268E+15  9.156E+17  8.832E+00
  26   5.533E+05   1.020E+17  3.305E+20  1.706E+21  1.266E+05  1.837E+07  3.940E+09  8.335E+10  1.055E+15  8.867E+17  4.534E+00
  27   5.259E+05   8.367E+16  3.184E+20  1.643E+21  7.012E+04  1.099E+07  2.651E+09  5.783E+10  8.731E+14  8.583E+17  2.280E+00
  28   5.001E+05   6.881E+16  3.067E+20  1.583E+21  3.911E+04  6.622E+06  1.791E+09  4.028E+10  7.239E+14  8.306E+17  1.156E+00
  29   4.756E+05   5.632E+16  2.955E+20  1.525E+21  2.143E+04  3.929E+06  1.197E+09  2.777E+10  5.971E+14  8.039E+17  5.728E-01
  30   4.523E+05   4.622E+16  2.846E+20  1.469E+21  1.185E+04  2.349E+06  8.045E+08  1.923E+10  4.934E+14  7.775E+17  2.870E-01
  31   4.302E+05   3.805E+16  2.741E+20  1.414E+21  6.622E+03  1.416E+06  5.439E+08  1.340E+10  4.088E+14  7.514E+17  1.456E-01
  32   4.092E+05   3.142E+16  2.639E+20  1.362E+21  3.743E+03  8.621E+05  3.703E+08  9.393E+09  3.394E+14  7.257E+17  7.483E-02
  33   3.891E+05   2.583E+16  2.540E+20  1.311E+21  2.084E+03  5.182E+05  2.496E+08  6.525E+09  2.806E+14  7.007E+17  3.775E-02
  34   3.701E+05   2.150E+16  2.443E+20  1.260E+21  1.212E+03  3.229E+05  1.728E+08  4.645E+09  2.345E+14  6.756E+17  2.008E-02
  35   3.520E+05   1.811E+16  2.347E+20  1.211E+21  7.381E+02  2.093E+05  1.231E+08  3.396E+09  1.983E+14  6.504E+17  1.131E-02
  36   3.346E+05   1.534E+16  2.253E+20  1.163E+21  4.590E+02  1.380E+05  8.879E+07  2.510E+09  1.685E+14  6.253E+17  6.536E-03
  37   3.184E+05   1.319E+16  2.162E+20  1.116E+21  3.005E+02  9.501E+04  6.614E+07  1.912E+09  1.451E+14  6.008E+17  4.021E-03
  38   3.028E+05   1.140E+16  2.073E+20  1.070E+21  2.016E+02  6.675E+04  5.001E+07  1.477E+09  1.257E+14  5.765E+17  2.549E-03
  39   2.879E+05   9.842E+15  1.987E+20  1.025E+21  1.343E+02  4.662E+04  3.763E+07  1.135E+09  1.087E+14  5.531E+17  1.602E-03
  40   2.738E+05   8.555E+15  1.905E+20  9.828E+20  9.171E+01  3.326E+04  2.877E+07  8.856E+08  9.455E+13  5.304E+17  1.038E-03
  41   2.603E+05   7.421E+15  1.825E+20  9.418E+20  6.222E+01  2.359E+04  2.190E+07  6.880E+08  8.211E+13  5.087E+17  6.675E-04
  42   2.478E+05   6.426E+15  1.751E+20  9.033E+20  4.189E+01  1.663E+04  1.660E+07  5.323E+08  7.123E+13  4.883E+17  4.248E-04
  43   2.356E+05   5.555E+15  1.678E+20  8.657E+20  2.803E+01  1.166E+04  1.252E+07  4.102E+08  6.161E+13  4.683E+17  2.684E-04
  44   2.240E+05   4.745E+15  1.609E+20  8.303E+20  1.797E+01  7.881E+03  9.196E+06  3.084E+08  5.271E+13  4.496E+17  1.608E-04
  45   2.131E+05   4.085E+15  1.543E+20  7.961E+20  1.183E+01  5.453E+03  6.871E+06  2.355E+08  4.542E+13  4.314E+17  9.958E-05
  46   2.026E+05   3.508E+15  1.479E+20  7.631E+20  7.738E+00  3.749E+03  5.110E+06  1.791E+08  3.906E+13  4.139E+17  6.115E-05
  47   1.928E+05   3.068E+15  1.417E+20  7.310E+20  5.406E+00  2.726E+03  3.961E+06  1.415E+08  3.418E+13  3.967E+17  4.071E-05
  48   1.833E+05   2.679E+15  1.356E+20  6.998E+20  3.757E+00  1.972E+03  3.057E+06  1.113E+08  2.984E+13  3.799E+17  2.695E-05
  49   1.638E+05   2.127E+15  1.225E+20  6.321E+20  2.187E+00  1.203E+03  2.032E+06  7.629E+07  2.368E+13  3.428E+17  1.499E-05
  50   1.481E+05   1.862E+15  1.114E+20  5.747E+20  1.765E+00  9.700E+02  1.668E+06  6.351E+07  2.066E+13  3.108E+17  1.237E-05
  51   1.340E+05   1.698E+15  1.010E+20  5.214E+20  1.659E+00  8.891E+02  1.505E+06  5.773E+07  1.876E+13  2.806E+17  1.232E-05
  52   1.213E+05   1.565E+15  9.160E+19  4.727E+20  1.619E+00  8.413E+02  1.389E+06  5.360E+07  1.719E+13  2.530E+17  1.284E-05
  53   1.097E+05   1.412E+15  8.314E+19  4.290E+20  1.459E+00  7.441E+02  1.220E+06  4.752E+07  1.542E+13  2.283E+17  1.213E-05
  54   9.927E+04   1.260E+15  7.550E+19  3.896E+20  1.262E+00  6.354E+02  1.044E+06  4.112E+07  1.367E+13  2.062E+17  1.087E-05
  55   8.982E+04   1.123E+15  6.858E+19  3.539E+20  1.088E+00  5.414E+02  8.920E+05  3.552E+07  1.211E+13  1.860E+17  9.709E-06
  56   8.125E+04   1.012E+15  6.224E+19  3.212E+20  9.734E-01  4.760E+02  7.794E+05  3.133E+07  1.082E+13  1.675E+17  9.077E-06
  57   7.353E+04   9.321E+14  5.644E+19  2.913E+20  9.414E-01  4.464E+02  7.142E+05  2.887E+07  9.856E+12  1.503E+17  9.316E-06
  58   6.652E+04   8.580E+14  5.116E+19  2.640E+20  9.089E-01  4.180E+02  6.533E+05  2.656E+07  8.961E+12  1.345E+17  9.535E-06
  59   6.020E+04   7.985E+14  4.636E+19  2.392E+20  9.111E-01  4.039E+02  6.111E+05  2.495E+07  8.213E+12  1.201E+17  1.020E-05
  60   5.446E+04   7.267E+14  4.205E+19  2.170E+20  8.409E-01  3.639E+02  5.429E+05  2.233E+07  7.361E+12  1.072E+17  9.846E-06
  61   4.926E+04   6.685E+14  3.811E+19  1.967E+20  8.055E-01  3.382E+02  4.929E+05  2.039E+07  6.645E+12  9.539E+16  9.931E-06
  62   4.460E+04   6.291E+14  3.453E+19  1.782E+20  8.332E-01  3.349E+02  4.688E+05  1.943E+07  6.104E+12  8.436E+16  1.096E-05
  63   4.036E+04   6.051E+14  3.122E+19  1.611E+20  9.297E-01  3.533E+02  4.661E+05  1.928E+07  5.688E+12  7.391E+16  1.323E-05
  64   3.651E+04   5.950E+14  2.819E+19  1.455E+20  1.118E+00  3.960E+02  4.838E+05  1.990E+07  5.371E+12  6.408E+16  1.739E-05
  65   3.303E+04   5.915E+14  2.543E+19  1.313E+20  1.387E+00  4.555E+02  5.106E+05  2.085E+07  5.084E+12  5.505E+16  2.364E-05
  66   2.991E+04   5.817E+14  2.298E+19  1.187E+20  1.644E+00  5.036E+02  5.232E+05  2.123E+07  4.742E+12  4.718E+16  3.022E-05
  67   2.704E+04   5.471E+14  2.080E+19  1.074E+20  1.656E+00  4.857E+02  4.841E+05  1.968E+07  4.235E+12  4.053E+16  3.165E-05
  68   2.448E+04   5.148E+14  1.884E+19  9.725E+19  1.658E+00  4.658E+02  4.456E+05  1.815E+07  3.763E+12  3.468E+16  3.274E-05
  69   2.215E+04   4.952E+14  1.704E+19  8.796E+19  1.781E+00  4.728E+02  4.265E+05  1.734E+07  3.377E+12  2.926E+16  3.661E-05
  70   2.004E+04   4.921E+14  1.537E+19  7.938E+19  2.121E+00  5.221E+02  4.323E+05  1.744E+07  3.071E+12  2.416E+16  4.588E-05
  71   1.815E+04   5.162E+14  1.384E+19  7.147E+19  3.011E+00  6.657E+02  4.846E+05  1.922E+07  2.874E+12  1.940E+16  7.003E-05
  72   1.642E+04   5.466E+14  1.244E+19  6.427E+19  4.343E+00  8.571E+02  5.442E+05  2.119E+07  2.660E+12  1.525E+16  1.074E-04
  73   1.487E+04   5.779E+14  1.119E+19  5.781E+19  6.153E+00  1.085E+03  6.016E+05  2.300E+07  2.430E+12  1.185E+16  1.596E-04
  74   1.346E+04   5.976E+14  1.008E+19  5.206E+19  7.991E+00  1.276E+03  6.288E+05  2.369E+07  2.160E+12  9.169E+15  2.123E-04
  75   1.217E+04   5.985E+14  9.087E+18  4.694E+19  9.239E+00  1.361E+03  6.115E+05  2.283E+07  1.864E+12  7.124E+15  2.450E-04
  76   1.102E+04   5.935E+14  8.205E+18  4.239E+19  1.029E+01  1.407E+03  5.817E+05  2.156E+07  1.597E+12  5.558E+15  2.700E-04
  77   9.969E+03   5.703E+14  7.419E+18  3.833E+19  1.029E+01  1.331E+03  5.192E+05  1.921E+07  1.337E+12  4.378E+15  2.626E-04
  78   9.020E+03   5.370E+14  6.717E+18  3.471E+19  9.591E+00  1.187E+03  4.441E+05  1.646E+07  1.103E+12  3.474E+15  2.348E-04
  79   8.164E+03   5.056E+14  6.083E+18  3.143E+19  8.954E+00  1.061E+03  3.807E+05  1.414E+07  9.121E+11  2.763E+15  2.107E-04
  80   7.385E+03   4.712E+14  5.509E+18  2.847E+19  8.046E+00  9.177E+02  3.185E+05  1.187E+07  7.460E+11  2.197E+15  1.804E-04
  81   6.685E+03   4.483E+14  4.987E+18  2.577E+19  7.778E+00  8.440E+02  2.787E+05  1.039E+07  6.211E+11  1.740E+15  1.685E-04
  82   6.047E+03   4.219E+14  4.514E+18  2.333E+19  7.239E+00  7.519E+02  2.381E+05  8.891E+06  5.118E+11  1.378E+15  1.504E-04
  83   5.474E+03   4.014E+14  4.086E+18  2.112E+19  7.003E+00  6.920E+02  2.085E+05  7.785E+06  4.264E+11  1.093E+15  1.407E-04
  84   4.951E+03   3.740E+14  3.700E+18  1.912E+19  6.308E+00  6.002E+02  1.749E+05  6.555E+06  3.497E+11  8.712E+14  1.212E-04
  85   4.481E+03   3.485E+14  3.354E+18  1.733E+19  5.714E+00  5.236E+02  1.476E+05  5.553E+06  2.887E+11  6.995E+14  1.054E-04
  86   4.055E+03   3.214E+14  3.041E+18  1.571E+19  5.016E+00  4.453E+02  1.225E+05  4.633E+06  2.377E+11  5.663E+14  8.874E-05
  87   3.667E+03   2.932E+14  2.757E+18  1.425E+19  4.277E+00  3.702E+02  1.002E+05  3.817E+06  1.955E+11  4.630E+14  7.265E-05
  88   3.316E+03   2.645E+14  2.501E+18  1.293E+19  3.538E+00  3.004E+02  8.070E+04  3.102E+06  1.606E+11  3.825E+14  5.775E-05
  89   3.001E+03   2.387E+14  2.271E+18  1.174E+19  2.950E+00  2.459E+02  6.561E+04  2.545E+06  1.333E+11  3.195E+14  4.666E-05
  90   2.716E+03   2.153E+14  2.062E+18  1.066E+19  2.483E+00  2.031E+02  5.383E+04  2.108E+06  1.118E+11  2.696E+14  3.844E-05
  91   2.457E+03   1.900E+14  1.874E+18  9.684E+18  1.946E+00  1.583E+02  4.242E+04  1.683E+06  9.261E+10  2.301E+14  2.923E-05
  92   2.222E+03   1.675E+14  1.702E+18  8.796E+18  1.536E+00  1.243E+02  3.369E+04  1.354E+06  7.741E+10  1.982E+14  2.260E-05
  93   2.011E+03   1.476E+14  1.548E+18  7.998E+18  1.219E+00  9.819E+01  2.694E+04  1.097E+06  6.523E+10  1.724E+14  1.768E-05
  94   1.819E+03   1.286E+14  1.407E+18  7.273E+18  9.332E-01  7.534E+01  2.112E+04  8.736E+05  5.475E+10  1.511E+14  1.333E-05
  95   1.646E+03   1.118E+14  1.280E+18  6.614E+18  7.170E-01  5.802E+01  1.664E+04  6.989E+05  4.621E+10  1.334E+14  1.014E-05
  96   1.489E+03   9.722E+13  1.164E+18  6.016E+18  5.517E-01  4.479E+01  1.314E+04  5.610E+05  3.919E+10  1.184E+14  7.755E-06
  97   1.347E+03   8.444E+13  1.059E+18  5.471E+18  4.252E-01  3.465E+01  1.042E+04  4.515E+05  3.337E+10  1.056E+14  5.969E-06
  98   1.219E+03   7.324E+13  9.630E+17  4.977E+18  3.277E-01  2.683E+01  8.264E+03  3.641E+05  2.849E+10  9.465E+13  4.605E-06
  99   1.102E+03   6.273E+13  8.761E+17  4.528E+18  2.418E-01  2.003E+01  6.388E+03  2.867E+05  2.410E+10  8.509E+13  3.379E-06
 100   9.972E+02   5.430E+13  7.971E+17  4.120E+18  1.859E-01  1.549E+01  5.074E+03  2.314E+05  2.066E+10  7.672E+13  2.612E-06
 101   9.018E+02   4.639E+13  7.253E+17  3.749E+18  1.366E-01  1.153E+01  3.918E+03  1.821E+05  1.751E+10  6.933E+13  1.912E-06
 102   8.161E+02   4.007E+13  6.600E+17  3.411E+18  1.046E-01  8.890E+00  3.109E+03  1.469E+05  1.504E+10  6.276E+13  1.475E-06
 103   7.384E+02   3.415E+13  6.009E+17  3.105E+18  7.630E-02  6.583E+00  2.394E+03  1.153E+05  1.276E+10  5.692E+13  1.073E-06
 104   6.676E+02   2.870E+13  5.470E+17  2.827E+18  5.293E-02  4.671E+00  1.786E+03  8.788E+04  1.068E+10  5.168E+13  7.335E-07
 105   6.038E+02   2.407E+13  4.983E+17  2.575E+18  3.649E-02  3.298E+00  1.328E+03  6.677E+04  8.932E+09  4.698E+13  4.981E-07
 106   5.463E+02   2.016E+13  4.540E+17  2.346E+18  2.500E-02  2.317E+00  9.833E+02  5.056E+04  7.462E+09  4.274E+13  3.355E-07
 107   4.941E+02   1.664E+13  4.138E+17  2.139E+18  1.621E-02  1.553E+00  7.036E+02  3.708E+04  6.141E+09  3.892E+13  2.112E-07
 108   4.470E+02   1.370E+13  3.773E+17  1.950E+18  1.042E-02  1.035E+00  5.010E+02  2.707E+04  5.047E+09  3.546E+13  1.316E-07
 109   4.044E+02   1.125E+13  3.441E+17  1.778E+18  6.642E-03  6.839E-01  3.548E+02  1.966E+04  4.136E+09  3.231E+13  8.109E-08
 110   3.656E+02   9.092E+12  3.138E+17  1.622E+18  3.991E-03  4.300E-01  2.420E+02  1.380E+04  3.334E+09  2.945E+13  4.651E-08
 111   3.308E+02   7.431E+12  2.862E+17  1.479E+18  2.496E-03  2.798E-01  1.693E+02  9.910E+03  2.718E+09  2.685E+13  2.798E-08
 112   2.991E+02   5.973E+12  2.611E+17  1.350E+18  1.468E-03  1.728E-01  1.140E+02  6.868E+03  2.180E+09  2.448E+13  1.562E-08
 113   2.705E+02   4.785E+12  2.383E+17  1.231E+18  8.536E-04  1.057E-01  7.614E+01  4.727E+03  1.741E+09  2.233E+13  8.591E-09
 114   2.447E+02   3.823E+12  2.175E+17  1.124E+18  4.903E-04  6.400E-02  5.050E+01  3.231E+03  1.387E+09  2.038E+13  4.654E-09
 115   2.213E+02   3.044E+12  1.986E+17  1.026E+18  2.784E-04  3.838E-02  3.325E+01  2.194E+03  1.102E+09  1.859E+13  2.486E-09
 116   2.001E+02   2.416E+12  1.812E+17  9.366E+17  1.562E-04  2.278E-02  2.171E+01  1.479E+03  8.716E+08  1.696E+13  1.308E-09
 117   1.811E+02   1.911E+12  1.655E+17  8.553E+17  8.649E-05  1.337E-02  1.407E+01  9.894E+02  6.873E+08  1.548E+13  6.778E-10
 118   1.638E+02   1.507E+12  1.511E+17  7.810E+17  4.731E-05  7.774E-03  9.049E+00  6.573E+02  5.401E+08  1.413E+13  3.459E-10
 119   1.482E+02   1.185E+12  1.380E+17  7.132E+17  2.556E-05  4.472E-03  5.775E+00  4.335E+02  4.232E+08  1.290E+13  1.740E-10
 120   1.340E+02   9.283E+11  1.260E+17  6.512E+17  1.365E-05  2.547E-03  3.657E+00  2.840E+02  3.302E+08  1.177E+13  8.641E-11
 121   1.212E+02   7.257E+11  1.150E+17  5.946E+17  7.213E-06  1.441E-03  2.302E+00  1.851E+02  2.572E+08  1.074E+13  4.253E-11
 122   1.096E+02   5.669E+11  1.050E+17  5.428E+17  3.796E-06  8.132E-04  1.446E+00  1.204E+02  2.001E+08  9.799E+12  2.094E-11
 123   9.912E+01   4.484E+11  9.587E+16  4.955E+17  2.089E-06  4.764E-04  9.341E-01  8.037E+01  1.576E+08  8.939E+12  1.088E-11
 124   8.963E+01   3.565E+11  8.749E+16  4.522E+17  1.165E-06  2.837E-04  6.095E-01  5.420E+01  1.248E+08  8.152E+12  5.821E-12
 125   8.112E+01   2.878E+11  7.984E+16  4.127E+17  6.858E-07  1.769E-04  4.116E-01  3.775E+01  1.003E+08  7.433E+12  3.366E-12
 126   7.338E+01   2.349E+11  7.284E+16  3.765E+17  4.159E-07  1.140E-04  2.839E-01  2.688E+01  8.154E+07  6.776E+12  2.077E-12
 127   6.637E+01   1.948E+11  6.644E+16  3.434E+17  2.638E-07  7.706E-05  2.020E-01  1.974E+01  6.732E+07  6.175E+12  1.399E-12
 128   6.001E+01   1.656E+11  6.059E+16  3.131E+17  1.803E-07  5.613E-05  1.509E-01  1.523E+01  5.697E+07  5.626E+12  1.056E-12
 129   5.430E+01   1.459E+11  5.521E+16  2.853E+17  1.416E-07  4.567E-05  1.224E-01  1.269E+01  4.998E+07  5.121E+12  9.385E-13
 130   4.908E+01   1.328E+11  5.029E+16  2.599E+17  1.230E-07  4.096E-05  1.054E-01  1.127E+01  4.529E+07  4.661E+12  9.132E-13
 131   4.441E+01   1.253E+11  4.579E+16  2.367E+17  1.248E-07  4.109E-05  9.879E-02  1.080E+01  4.258E+07  4.238E+12  1.014E-12
 132   4.019E+01   1.220E+11  4.166E+16  2.153E+17  1.446E-07  4.535E-05  9.903E-02  1.105E+01  4.129E+07  3.851E+12  1.231E-12
 133   3.635E+01   1.216E+11  3.788E+16  1.958E+17  1.867E-07  5.385E-05  1.042E-01  1.188E+01  4.101E+07  3.497E+12  1.567E-12
 134   3.288E+01   1.235E+11  3.441E+16  1.778E+17  2.643E-07  6.766E-05  1.144E-01  1.326E+01  4.147E+07  3.172E+12  2.086E-12
 135   2.974E+01   1.271E+11  3.127E+16  1.616E+17  4.013E-07  8.859E-05  1.290E-01  1.523E+01  4.253E+07  2.878E+12  2.823E-12
 136   2.692E+01   1.318E+11  2.840E+16  1.468E+17  6.380E-07  1.190E-04  1.488E-01  1.781E+01  4.396E+07  2.610E+12  3.890E-12
 137   2.433E+01   1.374E+11  2.579E+16  1.333E+17  1.046E-06  1.622E-04  1.722E-01  2.098E+01  4.564E+07  2.365E+12  5.225E-12
 138   1.752E+01   1.599E+11  1.882E+16  9.726E+16  5.823E-06  4.667E-04  2.881E-01  3.705E+01  5.239E+07  1.714E+12  1.316E-11
 139   1.251E+01   1.870E+11  1.366E+16  7.059E+16  3.459E-05  1.368E-03  4.798E-01  6.575E+01  6.018E+07  1.232E+12  2.780E-11
 140   8.952E+00   2.218E+11  9.899E+15  5.116E+16  2.160E-04  4.205E-03  8.357E-01  1.208E+02  7.003E+07  8.826E+11  5.958E-11
 141   6.407E+00   2.724E+11  7.151E+15  3.696E+16  1.521E-03  1.444E-02  1.599E+00  2.404E+02  8.421E+07  6.278E+11  1.491E-10
 142   4.584E+00   3.477E+11  5.151E+15  2.662E+16  1.224E-02  5.612E-02  3.371E+00  5.213E+02  1.050E+08  4.431E+11  4.582E-10
 143   3.283E+00   4.565E+11  3.704E+15  1.914E+16  1.069E-01  2.379E-01  7.658E+00  1.202E+03  1.338E+08  3.101E+11  1.780E-09
 144   2.351E+00   5.835E+11  2.660E+15  1.375E+16  8.177E-01  9.281E-01  1.652E+01  2.623E+03  1.648E+08  2.150E+11  7.426E-09
 145   1.684E+00   7.327E+11  1.913E+15  9.885E+15  5.688E+00  3.373E+00  3.363E+01  5.424E+03  1.968E+08  1.473E+11  8.970E-08
 146   1.207E+00   8.830E+11  1.376E+15  7.109E+15  3.257E+01  1.063E+01  6.184E+01  1.013E+04  2.215E+08  9.922E+10  7.562E-06
 147   8.644E-01   1.004E+12  9.894E+14  5.113E+15  1.429E+02  2.748E+01  9.886E+01  1.647E+04  2.301E+08  6.532E+10  1.956E-04
 148   6.189E-01   1.083E+12  7.111E+14  3.675E+15  4.893E+02  5.899E+01  1.382E+02  2.340E+04  2.201E+08  4.174E+10  1.753E-03
 149   4.433E-01   1.100E+12  5.114E+14  2.642E+15  1.276E+03  1.036E+02  1.679E+02  2.891E+04  1.946E+08  2.618E+10  7.142E-03
 150   3.176E-01   1.093E+12  3.686E+14  1.904E+15  3.015E+03  1.676E+02  1.904E+02  3.360E+04  1.668E+08  1.635E+10  1.850E-02
 151   2.273E-01   1.090E+12  2.661E+14  1.375E+15  7.341E+03  2.746E+02  2.140E+02  3.924E+04  1.446E+08  1.032E+10  3.763E-02
 152   1.626E-01   1.099E+12  1.924E+14  9.938E+14  1.857E+04  4.657E+02  2.443E+02  4.688E+04  1.280E+08  6.593E+09  6.730E-02
 153   1.163E-01   1.121E+12  1.392E+14  7.188E+14  4.683E+04  8.012E+02  2.793E+02  5.611E+04  1.128E+08  4.149E+09  1.131E-01
 154   8.334E-02   1.144E+12  1.008E+14  5.206E+14  1.068E+05  1.284E+03  2.973E+02  6.248E+04  9.392E+07  2.473E+09  1.805E-01
 155   5.961E-02   1.166E+12  7.315E+13  3.775E+14  2.058E+05  1.797E+03  2.789E+02  6.069E+04  7.014E+07  1.327E+09  2.786E-01
