Index  PRESSURE   C6H6       O          O(1D      O2         OH         H2O        CO         CO2        HCO        H2CO    
   1  9.998E+05   8.347E+00  1.579E+12  2.286E+08  4.651E+08  1.138E+15  1.611E+18  4.887E+17  5.209E+13  1.097E+14  1.657E+14
   2  9.669E+05   7.846E+00  1.332E+12  1.804E+08  3.932E+08  1.021E+15  1.572E+18  4.758E+17  5.112E+13  9.935E+13  1.559E+14
   3  9.352E+05   7.374E+00  1.120E+12  1.419E+08  3.316E+08  9.147E+14  1.534E+18  4.627E+17  5.015E+13  8.983E+13  1.466E+14
   4  9.042E+05   6.924E+00  9.399E+11  1.111E+08  2.788E+08  8.179E+14  1.497E+18  4.498E+17  4.919E+13  8.110E+13  1.377E+14
   5  8.747E+05   6.495E+00  7.925E+11  8.767E+07  2.357E+08  7.337E+14  1.460E+18  4.375E+17  4.826E+13  7.340E+13  1.295E+14
   6  8.459E+05   6.088E+00  6.613E+11  6.814E+07  1.972E+08  6.543E+14  1.426E+18  4.246E+17  4.730E+13  6.605E+13  1.216E+14
   7  8.182E+05   5.697E+00  5.547E+11  5.335E+07  1.659E+08  5.852E+14  1.392E+18  4.124E+17  4.638E+13  5.960E+13  1.142E+14
   8  7.912E+05   5.323E+00  4.639E+11  4.162E+07  1.391E+08  5.226E+14  1.359E+18  4.004E+17  4.545E+13  5.368E+13  1.071E+14
   9  7.652E+05   4.968E+00  3.870E+11  3.234E+07  1.164E+08  4.661E+14  1.327E+18  3.883E+17  4.454E+13  4.827E+13  1.005E+14
  10  7.399E+05   4.632E+00  3.219E+11  2.502E+07  9.718E+07  4.149E+14  1.296E+18  3.764E+17  4.362E+13  4.335E+13  9.414E+13
  11  7.156E+05   4.317E+00  2.670E+11  1.928E+07  8.088E+07  3.688E+14  1.266E+18  3.645E+17  4.271E+13  3.885E+13  8.817E+13
  12  6.922E+05   4.021E+00  2.227E+11  1.498E+07  6.769E+07  3.289E+14  1.237E+18  3.533E+17  4.183E+13  3.493E+13  8.267E+13
  13  6.692E+05   3.731E+00  1.836E+11  1.145E+07  5.605E+07  2.915E+14  1.208E+18  3.416E+17  4.093E+13  3.120E+13  7.728E+13
  14  6.474E+05   3.465E+00  1.523E+11  8.827E+06  4.666E+07  2.592E+14  1.181E+18  3.306E+17  4.006E+13  2.795E+13  7.235E+13
  15  6.260E+05   3.207E+00  1.248E+11  6.688E+06  3.841E+07  2.289E+14  1.155E+18  3.192E+17  3.917E+13  2.488E+13  6.754E+13
  16  6.054E+05   2.969E+00  1.029E+11  5.111E+06  3.180E+07  2.029E+14  1.129E+18  3.084E+17  3.830E+13  2.220E+13  6.312E+13
  17  5.751E+05   2.625E+00  7.580E+10  3.339E+06  2.360E+07  1.677E+14  1.091E+18  2.918E+17  3.696E+13  1.855E+13  5.676E+13
  18  5.469E+05   2.320E+00  5.599E+10  2.190E+06  1.756E+07  1.389E+14  1.056E+18  2.761E+17  3.568E+13  1.552E+13  5.109E+13
  19  5.203E+05   2.039E+00  4.105E+10  1.421E+06  1.298E+07  1.146E+14  1.023E+18  2.606E+17  3.439E+13  1.293E+13  4.589E+13
  20  4.945E+05   1.777E+00  2.955E+10  8.985E+05  9.428E+06  9.363E+13  9.911E+17  2.450E+17  3.307E+13  1.065E+13  4.102E+13
  21  4.705E+05   1.545E+00  2.132E+10  5.698E+05  6.863E+06  7.661E+13  9.613E+17  2.300E+17  3.178E+13  8.779E+12  3.667E+13
  22  4.473E+05   1.328E+00  1.509E+10  3.517E+05  4.907E+06  6.202E+13  9.333E+17  2.149E+17  3.046E+13  7.152E+12  3.260E+13
  23  4.255E+05   1.145E+00  1.081E+10  2.210E+05  3.549E+06  5.055E+13  9.055E+17  2.012E+17  2.920E+13  5.866E+12  2.907E+13
  24  4.048E+05   9.790E-01  7.683E+09  1.373E+05  2.548E+06  4.101E+13  8.790E+17  1.878E+17  2.794E+13  4.784E+12  2.584E+13
  25  3.847E+05   8.356E-01  5.473E+09  8.555E+04  1.832E+06  3.329E+13  8.515E+17  1.753E+17  2.673E+13  3.904E+12  2.294E+13
  26  3.660E+05   7.110E-01  3.914E+09  5.361E+04  1.323E+06  2.710E+13  8.257E+17  1.635E+17  2.555E+13  3.190E+12  2.039E+13
  27  3.480E+05   6.094E-01  2.844E+09  3.437E+04  9.686E+05  2.222E+13  7.986E+17  1.531E+17  2.446E+13  2.630E+12  1.818E+13
  28  3.311E+05   5.284E-01  2.132E+09  2.302E+04  7.305E+05  1.854E+13  7.706E+17  1.444E+17  2.352E+13  2.207E+12  1.633E+13
  29  3.147E+05   4.568E-01  1.588E+09  1.528E+04  5.476E+05  1.540E+13  7.431E+17  1.359E+17  2.259E+13  1.845E+12  1.464E+13
  30  2.994E+05   4.018E-01  1.224E+09  1.064E+04  4.236E+05  1.302E+13  7.148E+17  1.291E+17  2.179E+13  1.574E+12  1.323E+13
  31  2.845E+05   3.522E-01  9.380E+08  7.354E+03  3.262E+05  1.098E+13  6.871E+17  1.224E+17  2.100E+13  1.338E+12  1.194E+13
  32  2.707E+05   3.126E-01  7.358E+08  5.250E+03  2.566E+05  9.374E+12  6.600E+17  1.167E+17  2.031E+13  1.153E+12  1.085E+13
  33  2.575E+05   2.787E-01  5.829E+08  3.801E+03  2.038E+05  8.046E+12  6.331E+17  1.116E+17  1.967E+13  9.992E+11  9.877E+12
  34  2.449E+05   2.501E-01  4.667E+08  2.794E+03  1.634E+05  6.942E+12  6.067E+17  1.069E+17  1.909E+13  8.717E+11  9.019E+12
  35  2.329E+05   2.239E-01  3.725E+08  2.044E+03  1.307E+05  5.979E+12  5.812E+17  1.025E+17  1.851E+13  7.587E+11  8.224E+12
  36  2.216E+05   2.034E-01  3.051E+08  1.551E+03  1.071E+05  5.222E+12  5.561E+17  9.879E+16  1.803E+13  6.709E+11  7.555E+12
  37  2.107E+05   1.845E-01  2.493E+08  1.172E+03  8.753E+04  4.553E+12  5.317E+17  9.522E+16  1.754E+13  5.923E+11  6.933E+12
  38  2.005E+05   1.685E-01  2.061E+08  9.017E+02  7.235E+04  3.996E+12  5.080E+17  9.206E+16  1.711E+13  5.267E+11  6.382E+12
  39  1.906E+05   1.537E-01  1.701E+08  6.915E+02  5.969E+04  3.502E+12  4.851E+17  8.897E+16  1.668E+13  4.677E+11  5.872E+12
  40  1.813E+05   1.425E-01  1.444E+08  5.518E+02  5.057E+04  3.116E+12  4.623E+17  8.661E+16  1.633E+13  4.225E+11  5.444E+12
  41  1.724E+05   1.317E-01  1.224E+08  4.393E+02  4.277E+04  2.769E+12  4.406E+17  8.426E+16  1.598E+13  3.810E+11  5.042E+12
  42  1.640E+05   1.226E-01  1.051E+08  3.566E+02  3.664E+04  2.479E+12  4.193E+17  8.225E+16  1.566E+13  3.465E+11  4.687E+12
  43  1.560E+05   1.147E-01  9.167E+07  2.954E+02  3.181E+04  2.237E+12  3.985E+17  8.058E+16  1.537E+13  3.177E+11  4.371E+12
  44  1.484E+05   1.082E-01  8.107E+07  2.498E+02  2.799E+04  2.033E+12  3.782E+17  7.921E+16  1.512E+13  2.938E+11  4.091E+12
  45  1.411E+05   1.015E-01  7.164E+07  2.109E+02  2.461E+04  1.847E+12  3.588E+17  7.782E+16  1.486E+13  2.714E+11  3.825E+12
  46  1.343E+05   9.661E-02  6.530E+07  1.861E+02  2.226E+04  1.706E+12  3.396E+17  7.700E+16  1.465E+13  2.552E+11  3.604E+12
  47  1.277E+05   9.151E-02  5.948E+07  1.641E+02  2.012E+04  1.574E+12  3.211E+17  7.613E+16  1.443E+13  2.396E+11  3.391E+12
  48  1.215E+05   8.694E-02  5.503E+07  1.479E+02  1.845E+04  1.464E+12  3.032E+17  7.549E+16  1.424E+13  2.269E+11  3.200E+12
  49  1.089E+05   7.735E-02  4.764E+07  1.222E+02  1.561E+04  1.266E+12  2.664E+17  7.433E+16  1.377E+13  2.037E+11  2.826E+12
  50  9.853E+04   6.895E-02  4.404E+07  1.107E+02  1.405E+04  1.140E+12  2.351E+17  7.376E+16  1.335E+13  1.892E+11  2.539E+12
  51  8.914E+04   5.966E-02  4.065E+07  1.002E+02  1.262E+04  1.024E+12  2.071E+17  7.274E+16  1.283E+13  1.747E+11  2.266E+12
  52  8.067E+04   5.025E-02  3.808E+07  9.263E+01  1.147E+04  9.273E+11  1.820E+17  7.152E+16  1.227E+13  1.616E+11  2.017E+12
  53  7.298E+04   4.093E-02  3.506E+07  8.358E+01  1.025E+04  8.314E+11  1.600E+17  6.968E+16  1.163E+13  1.473E+11  1.778E+12
  54  6.605E+04   3.234E-02  3.280E+07  7.715E+01  9.293E+03  7.516E+11  1.405E+17  6.768E+16  1.096E+13  1.347E+11  1.564E+12
  55  5.977E+04   2.479E-02  3.017E+07  6.953E+01  8.290E+03  6.733E+11  1.234E+17  6.521E+16  1.027E+13  1.215E+11  1.364E+12
  56  5.406E+04   1.835E-02  2.820E+07  6.411E+01  7.503E+03  6.080E+11  1.082E+17  6.262E+16  9.568E+12  1.097E+11  1.186E+12
  57  4.893E+04   1.308E-02  2.680E+07  6.051E+01  6.895E+03  5.539E+11  9.476E+16  5.993E+16  8.863E+12  9.936E+10  1.027E+12
  58  4.428E+04   8.938E-03  2.589E+07  5.846E+01  6.437E+03  5.092E+11  8.286E+16  5.713E+16  8.163E+12  9.010E+10  8.860E+11
  59  4.006E+04   5.927E-03  2.463E+07  5.525E+01  5.931E+03  4.645E+11  7.264E+16  5.409E+16  7.492E+12  8.071E+10  7.589E+11
  60  3.625E+04   3.756E-03  2.385E+07  5.349E+01  5.560E+03  4.278E+11  6.364E+16  5.102E+16  6.843E+12  7.242E+10  6.478E+11
  61  3.280E+04   2.268E-03  2.351E+07  5.310E+01  5.309E+03  3.981E+11  5.576E+16  4.795E+16  6.223E+12  6.510E+10  5.511E+11
  62  2.970E+04   1.336E-03  2.285E+07  5.159E+01  5.012E+03  3.680E+11  4.905E+16  4.484E+16  5.654E+12  5.792E+10  4.664E+11
  63  2.687E+04   7.574E-04  2.224E+07  5.022E+01  4.749E+03  3.407E+11  4.319E+16  4.174E+16  5.124E+12  5.129E+10  3.929E+11
  64  2.432E+04   4.099E-04  2.206E+07  5.015E+01  4.591E+03  3.191E+11  3.809E+16  3.875E+16  4.631E+12  4.555E+10  3.301E+11
  65  2.200E+04   2.172E-04  2.157E+07  4.904E+01  4.389E+03  2.967E+11  3.370E+16  3.583E+16  4.187E+12  4.006E+10  2.762E+11
  66  1.991E+04   1.134E-04  2.078E+07  4.693E+01  4.148E+03  2.741E+11  2.991E+16  3.302E+16  3.788E+12  3.492E+10  2.303E+11
  67  1.801E+04   5.780E-05  2.007E+07  4.501E+01  3.936E+03  2.537E+11  2.661E+16  3.036E+16  3.426E+12  3.038E+10  1.916E+11
  68  1.630E+04   2.874E-05  1.941E+07  4.325E+01  3.750E+03  2.353E+11  2.372E+16  2.786E+16  3.099E+12  2.638E+10  1.591E+11
  69  1.475E+04   1.399E-05  1.881E+07  4.162E+01  3.584E+03  2.187E+11  2.119E+16  2.552E+16  2.801E+12  2.285E+10  1.319E+11
  70  1.335E+04   6.676E-06  1.826E+07  4.014E+01  3.439E+03  2.035E+11  1.895E+16  2.333E+16  2.534E+12  1.977E+10  1.091E+11
  71  1.207E+04   3.188E-06  1.745E+07  3.783E+01  3.254E+03  1.880E+11  1.700E+16  2.130E+16  2.295E+12  1.698E+10  9.018E+10
  72  1.093E+04   1.504E-06  1.670E+07  3.571E+01  3.089E+03  1.738E+11  1.526E+16  1.943E+16  2.080E+12  1.457E+10  7.445E+10
  73  9.888E+03   7.188E-07  1.572E+07  3.293E+01  2.887E+03  1.594E+11  1.374E+16  1.771E+16  1.888E+12  1.243E+10  6.146E+10
  74  8.946E+03   3.472E-07  1.455E+07  2.964E+01  2.657E+03  1.449E+11  1.238E+16  1.613E+16  1.716E+12  1.053E+10  5.067E+10
  75  8.094E+03   1.708E-07  1.323E+07  2.606E+01  2.408E+03  1.305E+11  1.118E+16  1.469E+16  1.563E+12  8.874E+09  4.178E+10
  76  7.325E+03   8.575E-08  1.182E+07  2.233E+01  2.144E+03  1.164E+11  1.011E+16  1.338E+16  1.427E+12  7.435E+09  3.447E+10
  77  6.626E+03   4.391E-08  1.038E+07  1.866E+01  1.878E+03  1.029E+11  9.150E+15  1.218E+16  1.304E+12  6.190E+09  2.841E+10
  78  5.994E+03   2.299E-08  8.935E+06  1.519E+01  1.614E+03  9.000E+10  8.291E+15  1.109E+16  1.194E+12  5.120E+09  2.342E+10
  79  5.423E+03   1.235E-08  7.545E+06  1.202E+01  1.362E+03  7.789E+10  7.521E+15  1.011E+16  1.096E+12  4.213E+09  1.933E+10
  80  4.906E+03   6.657E-09  6.363E+06  9.504E+00  1.147E+03  6.735E+10  6.825E+15  9.204E+15  1.005E+12  3.465E+09  1.595E+10
  81  4.439E+03   3.571E-09  5.358E+06  7.496E+00  9.658E+02  5.821E+10  6.195E+15  8.380E+15  9.229E+11  2.847E+09  1.316E+10
  82  4.016E+03   1.868E-09  4.591E+06  6.057E+00  8.271E+02  5.079E+10  5.621E+15  7.627E+15  8.458E+11  2.351E+09  1.085E+10
  83  3.633E+03   9.294E-10  4.084E+06  5.153E+00  7.351E+02  4.525E+10  5.094E+15  6.932E+15  7.728E+11  1.961E+09  8.929E+09
  84  3.288E+03   4.375E-10  3.773E+06  4.621E+00  6.784E+02  4.117E+10  4.612E+15  6.295E+15  7.035E+11  1.653E+09  7.341E+09
  85  2.976E+03   1.976E-10  3.624E+06  4.372E+00  6.510E+02  3.828E+10  4.174E+15  5.711E+15  6.387E+11  1.410E+09  6.030E+09
  86  2.690E+03   8.896E-11  3.414E+06  4.027E+00  6.126E+02  3.518E+10  3.774E+15  5.175E+15  5.801E+11  1.193E+09  4.942E+09
  87  2.434E+03   4.084E-11  3.217E+06  3.710E+00  5.768E+02  3.237E+10  3.417E+15  4.694E+15  5.273E+11  1.011E+09  4.056E+09
  88  2.203E+03   1.914E-11  2.971E+06  3.325E+00  5.328E+02  2.946E+10  3.097E+15  4.261E+15  4.805E+11  8.520E+08  3.335E+09
  89  1.994E+03   9.343E-12  2.690E+06  2.898E+00  4.824E+02  2.652E+10  2.809E+15  3.869E+15  4.385E+11  7.139E+08  2.743E+09
  90  1.803E+03   4.789E-12  2.340E+06  2.389E+00  4.199E+02  2.334E+10  2.550E+15  3.515E+15  4.015E+11  5.910E+08  2.257E+09
  91  1.631E+03   2.577E-12  1.992E+06  1.913E+00  3.578E+02  2.031E+10  2.317E+15  3.196E+15  3.683E+11  4.864E+08  1.859E+09
  92  1.476E+03   1.443E-12  1.660E+06  1.486E+00  2.985E+02  1.746E+10  2.107E+15  2.908E+15  3.385E+11  3.977E+08  1.532E+09
  93  1.335E+03   8.354E-13  1.352E+06  1.119E+00  2.435E+02  1.482E+10  1.916E+15  2.646E+15  3.117E+11  3.232E+08  1.264E+09
  94  1.208E+03   5.075E-13  1.099E+06  8.398E-01  1.982E+02  1.257E+10  1.744E+15  2.409E+15  2.872E+11  2.626E+08  1.043E+09
  95  1.093E+03   3.151E-13  8.724E+05  6.098E-01  1.575E+02  1.051E+10  1.587E+15  2.194E+15  2.650E+11  2.117E+08  8.607E+08
  96  9.889E+02   2.084E-13  7.053E+05  4.544E-01  1.276E+02  8.891E+09  1.445E+15  1.997E+15  2.443E+11  1.717E+08  7.105E+08
  97  8.941E+02   1.413E-13  5.567E+05  3.274E-01  1.009E+02  7.413E+09  1.315E+15  1.818E+15  2.255E+11  1.382E+08  5.861E+08
  98  8.089E+02   1.023E-13  4.476E+05  2.421E-01  8.121E+01  6.248E+09  1.197E+15  1.655E+15  2.079E+11  1.119E+08  4.836E+08
  99  7.321E+02   7.935E-14  3.670E+05  1.839E-01  6.670E+01  5.325E+09  1.089E+15  1.506E+15  1.914E+11  9.110E+07  3.991E+08
 100  6.622E+02   6.307E-14  2.936E+05  1.351E-01  5.345E+01  4.475E+09  9.910E+14  1.371E+15  1.766E+11  7.362E+07  3.292E+08
 101  5.989E+02   5.259E-14  2.342E+05  9.879E-02  4.272E+01  3.755E+09  9.018E+14  1.248E+15  1.628E+11  5.942E+07  2.715E+08
 102  5.419E+02   4.559E-14  1.863E+05  7.197E-02  3.405E+01  3.146E+09  8.210E+14  1.136E+15  1.503E+11  4.796E+07  2.241E+08
 103  4.902E+02   3.989E-14  1.444E+05  5.057E-02  2.644E+01  2.597E+09  7.479E+14  1.035E+15  1.390E+11  3.842E+07  1.852E+08
 104  4.432E+02   3.503E-14  1.089E+05  3.422E-02  1.998E+01  2.111E+09  6.811E+14  9.425E+14  1.288E+11  3.050E+07  1.529E+08
 105  4.010E+02   3.126E-14  8.180E+04  2.302E-02  1.504E+01  1.713E+09  6.211E+14  8.595E+14  1.195E+11  2.423E+07  1.265E+08
 106  3.630E+02   2.831E-14  6.114E+04  1.539E-02  1.127E+01  1.387E+09  5.665E+14  7.839E+14  1.109E+11  1.922E+07  1.047E+08
 107  3.282E+02   2.448E-14  4.329E+04  9.543E-03  8.002E+00  1.089E+09  5.169E+14  7.153E+14  1.033E+11  1.500E+07  8.667E+07
 108  2.968E+02   2.123E-14  3.047E+04  5.867E-03  5.648E+00  8.516E+08  4.716E+14  6.526E+14  9.637E+10  1.168E+07  7.177E+07
 109  2.685E+02   1.829E-14  2.131E+04  3.575E-03  3.960E+00  6.640E+08  4.307E+14  5.960E+14  8.995E+10  9.090E+06  5.952E+07
 110  2.429E+02   1.532E-14  1.441E+04  2.080E-03  2.687E+00  5.082E+08  3.935E+14  5.446E+14  8.417E+10  7.004E+06  4.937E+07
 111  2.196E+02   1.271E-14  9.669E+03  1.198E-03  1.809E+00  3.870E+08  3.593E+14  4.972E+14  7.877E+10  5.378E+06  4.093E+07
 112  1.986E+02   1.024E-14  6.262E+03  6.563E-04  1.176E+00  2.891E+08  3.285E+14  4.547E+14  7.398E+10  4.093E+06  3.399E+07
 113  1.797E+02   8.280E-15  4.130E+03  3.689E-04  7.780E-01  2.182E+08  3.003E+14  4.156E+14  6.942E+10  3.132E+06  2.824E+07
 114  1.624E+02   6.611E-15  2.626E+03  1.970E-04  4.964E-01  1.612E+08  2.745E+14  3.799E+14  6.526E+10  2.369E+06  2.344E+07
 115  1.469E+02   5.326E-15  1.701E+03  1.080E-04  3.228E-01  1.204E+08  2.509E+14  3.472E+14  6.130E+10  1.802E+06  1.946E+07
 116  1.329E+02   4.369E-15  1.125E+03  6.092E-05  2.141E-01  9.094E+07  2.292E+14  3.172E+14  5.748E+10  1.379E+06  1.615E+07
 117  1.202E+02   3.660E-15  7.382E+02  3.400E-05  1.410E-01  6.841E+07  2.094E+14  2.898E+14  5.392E+10  1.053E+06  1.340E+07
 118  1.087E+02   3.122E-15  4.953E+02  1.957E-05  9.496E-02  5.210E+07  1.912E+14  2.646E+14  5.050E+10  8.096E+05  1.112E+07
 119  9.839E+01   2.720E-15  3.402E+02  1.163E-05  6.541E-02  4.020E+07  1.745E+14  2.415E+14  4.722E+10  6.265E+05  9.219E+06
 120  8.897E+01   2.487E-15  2.330E+02  6.877E-06  4.494E-02  3.095E+07  1.592E+14  2.203E+14  4.414E+10  4.842E+05  7.633E+06
 121  8.048E+01   2.367E-15  1.635E+02  4.209E-06  3.162E-02  2.416E+07  1.452E+14  2.009E+14  4.118E+10  3.771E+05  6.321E+06
 122  7.280E+01   2.411E-15  1.177E+02  2.671E-06  2.284E-02  1.913E+07  1.323E+14  1.831E+14  3.833E+10  2.956E+05  5.227E+06
 123  6.584E+01   2.802E-15  8.529E+01  1.702E-06  1.660E-02  1.519E+07  1.205E+14  1.668E+14  3.567E+10  2.326E+05  4.320E+06
 124  5.958E+01   3.746E-15  6.494E+01  1.168E-06  1.266E-02  1.241E+07  1.098E+14  1.519E+14  3.306E+10  1.852E+05  3.569E+06
 125  5.390E+01   6.363E-15  4.984E+01  8.068E-07  9.741E-03  1.018E+07  9.990E+13  1.383E+14  3.063E+10  1.482E+05  2.946E+06
 126  4.874E+01   1.346E-14  3.856E+01  5.610E-07  7.554E-03  8.379E+06  9.089E+13  1.258E+14  2.837E+10  1.190E+05  2.430E+06
 127  4.408E+01   3.135E-14  3.078E+01  4.075E-07  6.043E-03  7.019E+06  8.264E+13  1.144E+14  2.621E+10  9.639E+04  2.002E+06
 128  3.987E+01   7.283E-14  2.544E+01  3.104E-07  5.004E-03  5.994E+06  7.510E+13  1.039E+14  2.414E+10  7.894E+04  1.648E+06
 129  3.608E+01   1.605E-13  2.177E+01  2.479E-07  4.287E-03  5.220E+06  6.823E+13  9.444E+13  2.220E+10  6.533E+04  1.356E+06
 130  3.264E+01   3.256E-13  1.909E+01  2.029E-07  3.766E-03  4.601E+06  6.196E+13  8.576E+13  2.039E+10  5.471E+04  1.116E+06
 131  2.953E+01   6.135E-13  1.736E+01  1.745E-07  3.429E-03  4.138E+06  5.623E+13  7.783E+13  1.868E+10  4.633E+04  9.170E+05
 132  2.672E+01   1.052E-12  1.641E+01  1.581E-07  3.244E-03  3.803E+06  5.100E+13  7.059E+13  1.707E+10  3.969E+04  7.530E+05
 133  2.417E+01   1.682E-12  1.600E+01  1.478E-07  3.167E-03  3.549E+06  4.625E+13  6.401E+13  1.558E+10  3.452E+04  6.178E+05
 134  2.188E+01   2.496E-12  1.625E+01  1.459E-07  3.219E-03  3.388E+06  4.192E+13  5.803E+13  1.419E+10  3.043E+04  5.071E+05
 135  1.980E+01   3.455E-12  1.718E+01  1.521E-07  3.403E-03  3.306E+06  3.797E+13  5.255E+13  1.289E+10  2.715E+04  4.157E+05
 136  1.793E+01   4.499E-12  1.885E+01  1.669E-07  3.735E-03  3.296E+06  3.438E+13  4.759E+13  1.168E+10  2.451E+04  3.408E+05
 137  1.621E+01   5.608E-12  2.137E+01  1.892E-07  4.235E-03  3.338E+06  3.109E+13  4.304E+13  1.056E+10  2.244E+04  2.787E+05
 138  1.467E+01   6.578E-12  2.490E+01  2.236E-07  4.934E-03  3.435E+06  2.812E+13  3.892E+13  9.526E+09  2.068E+04  2.280E+05
 139  1.328E+01   7.386E-12  2.969E+01  2.704E-07  5.881E-03  3.575E+06  2.542E+13  3.518E+13  8.586E+09  1.927E+04  1.864E+05
 140  1.201E+01   7.859E-12  3.629E+01  3.401E-07  7.184E-03  3.776E+06  2.296E+13  3.179E+13  7.721E+09  1.804E+04  1.522E+05
 141  1.087E+01   7.963E-12  4.566E+01  4.462E-07  9.032E-03  4.056E+06  2.074E+13  2.871E+13  6.928E+09  1.702E+04  1.244E+05
 142  7.742E+00   6.449E-12  1.067E+02  1.232E-06  2.103E-02  5.365E+06  1.463E+13  2.025E+13  4.747E+09  1.419E+04  6.209E+04
 143  5.562E+00   3.307E-12  2.823E+02  4.219E-06  5.531E-02  7.689E+06  1.035E+13  1.433E+13  3.218E+09  1.211E+04  3.127E+04
 144  4.003E+00   1.004E-12  8.322E+02  1.841E-05  1.616E-01  1.188E+07  7.285E+12  1.009E+13  2.120E+09  1.012E+04  1.558E+04
 145  2.883E+00   2.262E-13  2.565E+03  9.208E-05  4.928E-01  1.903E+07  5.096E+12  7.056E+12  1.368E+09  8.189E+03  7.682E+03
 146  2.077E+00   5.599E-14  8.210E+03  5.155E-04  1.558E+00  3.139E+07  3.548E+12  4.913E+12  8.689E+08  6.451E+03  3.756E+03
 147  1.499E+00   2.202E-14  2.623E+04  2.928E-03  4.917E+00  5.187E+07  2.468E+12  3.418E+12  5.506E+08  5.022E+03  1.841E+03
 148  1.081E+00   1.012E-14  7.874E+04  1.487E-02  1.460E+01  8.235E+07  1.718E+12  2.380E+12  3.525E+08  3.877E+03  9.143E+02
 149  7.792E-01   3.522E-15  2.172E+05  6.520E-02  3.991E+01  1.242E+08  1.200E+12  1.663E+12  2.290E+08  2.959E+03  4.716E+02
 150  5.611E-01   6.219E-16  5.519E+05  2.452E-01  1.006E+02  1.776E+08  8.407E+11  1.165E+12  1.510E+08  2.229E+03  2.535E+02
 151  4.042E-01   3.401E-17  1.290E+06  8.381E-01  2.337E+02  2.431E+08  5.891E+11  8.170E+11  9.995E+07  1.640E+03  1.361E+02
 152  2.912E-01   4.822E-19  2.764E+06  2.553E+00  4.981E+02  3.172E+08  4.131E+11  5.733E+11  6.661E+07  1.196E+03  6.690E+01
 153  2.095E-01   1.659E-21  5.388E+06  6.900E+00  9.671E+02  3.931E+08  2.898E+11  4.025E+11  4.464E+07  8.777E+02  3.081E+01
 154  1.509E-01   2.031E-30  9.644E+06  1.710E+01  1.727E+03  4.664E+08  2.033E+11  2.826E+11  3.000E+07  6.737E+02  1.570E+01
 155  1.086E-01   8.110E-33  1.581E+07  3.769E+01  2.829E+03  5.272E+08  1.427E+11  1.987E+11  2.030E+07  5.353E+02  9.162E+00
 156  8.022E-02   6.230E-35  2.361E+07  7.226E+01  4.230E+03  5.646E+08  1.004E+11  1.401E+11  1.389E+07  4.277E+02  5.679E+00
