Index   PRESSURE   CN         HCN        H2CN       CH2NH      CH3NH      CH2NH2     CH3NH2     CH2CN      CH3CN      C3N     
   1   1.672E+06   4.008E+11  7.024E+15  3.512E+12  1.973E+13  1.378E+10  1.912E+11  1.914E+12  1.597E+11  7.013E+11  1.767E+00
   2   1.617E+06   3.415E+11  6.603E+15  3.120E+12  1.829E+13  1.205E+10  1.698E+11  1.788E+12  1.416E+11  6.560E+11  1.487E+00
   3   1.564E+06   2.876E+11  6.177E+15  2.752E+12  1.689E+13  1.046E+10  1.498E+11  1.668E+12  1.244E+11  6.109E+11  1.232E+00
   4   1.512E+06   2.435E+11  5.791E+15  2.435E+12  1.562E+13  9.118E+09  1.325E+11  1.556E+12  1.096E+11  5.699E+11  1.027E+00
   5   1.462E+06   2.054E+11  5.419E+15  2.149E+12  1.443E+13  7.924E+09  1.170E+11  1.451E+12  9.640E+10  5.305E+11  8.518E-01
   6   1.414E+06   1.727E+11  5.065E+15  1.893E+12  1.332E+13  6.879E+09  1.032E+11  1.353E+12  8.451E+10  4.934E+11  7.024E-01
   7   1.368E+06   1.460E+11  4.743E+15  1.673E+12  1.231E+13  5.990E+09  9.127E+10  1.262E+12  7.440E+10  4.596E+11  5.833E-01
   8   1.323E+06   1.218E+11  4.419E+15  1.467E+12  1.133E+13  5.179E+09  8.023E+10  1.176E+12  6.484E+10  4.259E+11  4.757E-01
   9   1.280E+06   1.023E+11  4.126E+15  1.291E+12  1.045E+13  4.494E+09  7.071E+10  1.096E+12  5.677E+10  3.955E+11  3.909E-01
  10   1.237E+06   8.561E+10  3.847E+15  1.133E+12  9.625E+12  3.891E+09  6.222E+10  1.021E+12  4.957E+10  3.668E+11  3.197E-01
  11   1.176E+06   6.444E+10  3.440E+15  9.227E+11  8.460E+12  3.103E+09  5.090E+10  9.154E+11  3.990E+10  3.252E+11  2.308E-01
  12   1.118E+06   4.855E+10  3.077E+15  7.518E+11  7.442E+12  2.480E+09  4.171E+10  8.217E+11  3.213E+10  2.882E+11  1.665E-01
  13   1.064E+06   3.665E+10  2.752E+15  6.133E+11  6.550E+12  1.984E+09  3.421E+10  7.377E+11  2.591E+10  2.556E+11  1.203E-01
  14   1.011E+06   2.714E+10  2.444E+15  4.943E+11  5.728E+12  1.571E+09  2.781E+10  6.607E+11  2.057E+10  2.248E+11  8.445E-02
  15   9.616E+05   2.013E+10  2.170E+15  3.987E+11  5.011E+12  1.245E+09  2.262E+10  5.918E+11  1.634E+10  1.977E+11  5.932E-02
  16   9.148E+05   1.496E+10  1.928E+15  3.221E+11  4.386E+12  9.889E+08  1.842E+10  5.302E+11  1.300E+10  1.739E+11  4.172E-02
  17   8.697E+05   1.089E+10  1.698E+15  2.569E+11  3.815E+12  7.763E+08  1.486E+10  4.740E+11  1.018E+10  1.516E+11  2.849E-02
  18   8.272E+05   8.046E+09  1.504E+15  2.066E+11  3.331E+12  6.140E+08  1.206E+10  4.239E+11  8.047E+09  1.328E+11  1.981E-02
  19   7.866E+05   5.816E+09  1.320E+15  1.640E+11  2.889E+12  4.803E+08  9.694E+09  3.785E+11  6.258E+09  1.153E+11  1.334E-02
  20   7.480E+05   4.217E+09  1.160E+15  1.304E+11  2.507E+12  3.762E+08  7.801E+09  3.378E+11  4.874E+09  1.002E+11  9.010E-03
  21   7.112E+05   3.027E+09  1.015E+15  1.030E+11  2.168E+12  2.932E+08  6.249E+09  3.013E+11  3.766E+09  8.663E+10  5.990E-03
  22   6.763E+05   2.152E+09  8.846E+14  8.092E+10  1.870E+12  2.275E+08  4.984E+09  2.684E+11  2.885E+09  7.457E+10  3.919E-03
  23   6.433E+05   1.513E+09  7.672E+14  6.312E+10  1.607E+12  1.754E+08  3.957E+09  2.389E+11  2.191E+09  6.383E+10  2.518E-03
  24   6.117E+05   1.068E+09  6.662E+14  4.934E+10  1.383E+12  1.356E+08  3.145E+09  2.126E+11  1.668E+09  5.470E+10  1.626E-03
  25   5.818E+05   7.453E+08  5.755E+14  3.831E+10  1.185E+12  1.042E+08  2.488E+09  1.889E+11  1.257E+09  4.661E+10  1.030E-03
  26   5.533E+05   5.146E+08  4.950E+14  2.955E+10  1.012E+12  7.961E+07  1.958E+09  1.677E+11  9.395E+08  3.951E+10  6.419E-04
  27   5.259E+05   3.513E+08  4.237E+14  2.262E+10  8.607E+11  6.042E+07  1.532E+09  1.485E+11  6.955E+08  3.331E+10  3.930E-04
  28   5.001E+05   2.409E+08  3.632E+14  1.736E+10  7.329E+11  4.600E+07  1.202E+09  1.317E+11  5.164E+08  2.812E+10  2.416E-04
  29   4.756E+05   1.631E+08  3.095E+14  1.322E+10  6.213E+11  3.478E+07  9.368E+08  1.164E+11  3.792E+08  2.358E+10  1.455E-04
  30   4.523E+05   1.112E+08  2.644E+14  1.010E+10  5.279E+11  2.640E+07  7.325E+08  1.031E+11  2.799E+08  1.982E+10  8.836E-05
  31   4.302E+05   7.623E+07  2.264E+14  7.754E+09  4.492E+11  2.010E+07  5.743E+08  9.129E+10  2.075E+08  1.670E+10  5.408E-05
  32   4.092E+05   5.271E+07  1.946E+14  5.981E+09  3.834E+11  1.537E+07  4.522E+08  8.095E+10  1.548E+08  1.412E+10  3.345E-05
  33   3.891E+05   3.604E+07  1.663E+14  4.579E+09  3.256E+11  1.168E+07  3.537E+08  7.156E+10  1.144E+08  1.186E+10  2.033E-05
  34   3.701E+05   2.542E+07  1.441E+14  3.575E+09  2.796E+11  9.024E+06  2.809E+08  6.357E+10  8.668E+07  1.011E+10  1.292E-05
  35   3.520E+05   1.852E+07  1.267E+14  2.849E+09  2.428E+11  7.099E+06  2.265E+08  5.675E+10  6.745E+07  8.748E+09  8.601E-06
  36   3.346E+05   1.370E+07  1.121E+14  2.293E+09  2.119E+11  5.627E+06  1.839E+08  5.072E+10  5.312E+07  7.626E+09  5.856E-06
  37   3.184E+05   1.051E+07  1.008E+14  1.888E+09  1.873E+11  4.553E+06  1.521E+08  4.564E+10  4.309E+07  6.761E+09  4.198E-06
  38   3.028E+05   8.203E+06  9.143E+13  1.573E+09  1.667E+11  3.719E+06  1.268E+08  4.116E+10  3.549E+07  6.050E+09  3.091E-06
  39   2.879E+05   6.373E+06  8.271E+13  1.306E+09  1.480E+11  3.028E+06  1.054E+08  3.708E+10  2.910E+07  5.398E+09  2.259E-06
  40   2.738E+05   5.037E+06  7.538E+13  1.096E+09  1.322E+11  2.489E+06  8.833E+07  3.348E+10  2.420E+07  4.855E+09  1.692E-06
  41   2.603E+05   3.959E+06  6.850E+13  9.165E+08  1.178E+11  2.039E+06  7.380E+07  3.018E+10  2.002E+07  4.353E+09  1.257E-06
  42   2.478E+05   3.091E+06  6.203E+13  7.633E+08  1.047E+11  1.666E+06  6.150E+07  2.720E+10  1.648E+07  3.889E+09  9.245E-07
  43   2.356E+05   2.402E+06  5.602E+13  6.331E+08  9.278E+10  1.355E+06  5.106E+07  2.444E+10  1.350E+07  3.464E+09  6.754E-07
  44   2.240E+05   1.809E+06  4.987E+13  5.146E+08  8.130E+10  1.084E+06  4.175E+07  2.185E+10  1.078E+07  3.038E+09  4.708E-07
  45   2.131E+05   1.385E+06  4.466E+13  4.225E+08  7.156E+10  8.739E+05  3.438E+07  1.955E+10  8.723E+06  2.682E+09  3.367E-07
  46   2.026E+05   1.055E+06  3.990E+13  3.456E+08  6.284E+10  7.022E+05  2.822E+07  1.746E+10  7.028E+06  2.362E+09  2.390E-07
  47   1.928E+05   8.391E+05  3.628E+13  2.903E+08  5.592E+10  5.771E+05  2.362E+07  1.566E+10  5.863E+06  2.120E+09  1.810E-07
  48   1.833E+05   6.628E+05  3.281E+13  2.424E+08  4.949E+10  4.715E+05  1.965E+07  1.398E+10  4.860E+06  1.893E+09  1.360E-07
  49   1.638E+05   4.670E+05  2.814E+13  1.803E+08  3.969E+10  3.277E+05  1.406E+07  1.099E+10  3.690E+06  1.588E+09  9.431E-08
  50   1.481E+05   4.054E+05  2.622E+13  1.533E+08  3.420E+10  2.576E+05  1.121E+07  8.954E+09  3.312E+06  1.461E+09  8.871E-08
  51   1.340E+05   3.978E+05  2.602E+13  1.417E+08  3.104E+10  2.178E+05  9.540E+06  7.516E+09  3.294E+06  1.435E+09  9.940E-08
  52   1.213E+05   4.017E+05  2.617E+13  1.335E+08  2.848E+10  1.871E+05  8.242E+06  6.346E+09  3.353E+06  1.430E+09  1.160E-07
  53   1.097E+05   3.839E+05  2.569E+13  1.214E+08  2.565E+10  1.561E+05  6.937E+06  5.318E+09  3.261E+06  1.387E+09  1.245E-07
  54   9.927E+04   3.554E+05  2.482E+13  1.081E+08  2.280E+10  1.279E+05  5.742E+06  4.426E+09  3.086E+06  1.322E+09  1.275E-07
  55   8.982E+04   3.284E+05  2.396E+13  9.615E+07  2.025E+10  1.046E+05  4.749E+06  3.681E+09  2.912E+06  1.258E+09  1.299E-07
  56   8.125E+04   3.121E+05  2.344E+13  8.707E+07  1.818E+10  8.694E+04  3.981E+06  3.075E+09  2.812E+06  1.213E+09  1.377E-07
  57   7.353E+04   3.141E+05  2.352E+13  8.179E+07  1.665E+10  7.453E+04  3.432E+06  2.594E+09  2.838E+06  1.199E+09  1.582E-07
  58   6.652E+04   3.153E+05  2.355E+13  7.665E+07  1.521E+10  6.373E+04  2.950E+06  2.182E+09  2.854E+06  1.181E+09  1.809E-07
  59   6.020E+04   3.251E+05  2.385E+13  7.304E+07  1.402E+10  5.527E+04  2.568E+06  1.841E+09  2.926E+06  1.175E+09  2.143E-07
  60   5.446E+04   3.170E+05  2.358E+13  6.721E+07  1.269E+10  4.654E+04  2.178E+06  1.543E+09  2.864E+06  1.138E+09  2.330E-07
  61   4.926E+04   3.170E+05  2.354E+13  6.275E+07  1.156E+10  3.965E+04  1.866E+06  1.294E+09  2.852E+06  1.110E+09  2.620E-07
  62   4.460E+04   3.339E+05  2.397E+13  6.049E+07  1.069E+10  3.471E+04  1.636E+06  1.090E+09  2.947E+06  1.103E+09  3.158E-07
  63   4.036E+04   3.703E+05  2.489E+13  6.006E+07  1.001E+10  3.109E+04  1.463E+06  9.184E+08  3.151E+06  1.110E+09  4.078E-07
  64   3.651E+04   4.312E+05  2.627E+13  6.131E+07  9.476E+09  2.846E+04  1.332E+06  7.727E+08  3.472E+06  1.130E+09  5.600E-07
  65   3.303E+04   5.121E+05  2.783E+13  6.314E+07  8.977E+09  2.622E+04  1.218E+06  6.470E+08  3.851E+06  1.146E+09  7.828E-07
  66   2.991E+04   5.869E+05  2.894E+13  6.350E+07  8.383E+09  2.368E+04  1.094E+06  5.377E+08  4.128E+06  1.134E+09  1.030E-06
  67   2.704E+04   6.005E+05  2.861E+13  5.937E+07  7.514E+09  2.008E+04  9.294E+05  4.383E+08  4.028E+06  1.063E+09  1.144E-06
  68   2.448E+04   6.100E+05  2.810E+13  5.517E+07  6.698E+09  1.693E+04  7.853E+05  3.557E+08  3.884E+06  9.850E+08  1.246E-06
  69   2.215E+04   6.478E+05  2.793E+13  5.248E+07  6.011E+09  1.454E+04  6.730E+05  2.873E+08  3.829E+06  9.149E+08  1.428E-06
  70   2.004E+04   7.342E+05  2.826E+13  5.161E+07  5.439E+09  1.279E+04  5.877E+05  2.298E+08  3.896E+06  8.513E+08  1.758E-06
  71   1.815E+04   9.304E+05  2.959E+13  5.395E+07  5.028E+09  1.181E+04  5.339E+05  1.827E+08  4.222E+06  8.045E+08  2.473E-06
  72   1.642E+04   1.183E+06  3.064E+13  5.605E+07  4.583E+09  1.080E+04  4.798E+05  1.424E+08  4.481E+06  7.376E+08  3.400E-06
  73   1.487E+04   1.481E+06  3.129E+13  5.739E+07  4.122E+09  9.743E+03  4.253E+05  1.097E+08  4.624E+06  6.589E+08  4.477E-06
  74   1.346E+04   1.743E+06  3.104E+13  5.644E+07  3.622E+09  8.489E+03  3.654E+05  8.342E+07  4.513E+06  5.675E+08  5.333E-06
  75   1.217E+04   1.899E+06  2.984E+13  5.295E+07  3.107E+09  7.107E+03  3.033E+05  6.299E+07  4.142E+06  4.731E+08  5.661E-06
  76   1.102E+04   2.021E+06  2.847E+13  4.907E+07  2.655E+09  5.900E+03  2.500E+05  4.770E+07  3.742E+06  3.919E+08  5.806E-06
  77   9.969E+03   2.013E+06  2.657E+13  4.378E+07  2.236E+09  4.752E+03  2.010E+05  3.617E+07  3.233E+06  3.191E+08  5.439E-06
  78   9.020E+03   1.920E+06  2.447E+13  3.815E+07  1.868E+09  3.756E+03  1.592E+05  2.747E+07  2.713E+06  2.571E+08  4.794E-06
  79   8.164E+03   1.840E+06  2.264E+13  3.341E+07  1.569E+09  2.986E+03  1.267E+05  2.101E+07  2.293E+06  2.086E+08  4.264E-06
  80   7.385E+03   1.725E+06  2.080E+13  2.890E+07  1.311E+09  2.349E+03  1.000E+05  1.605E+07  1.905E+06  1.679E+08  3.662E-06
  81   6.685E+03   1.700E+06  1.951E+13  2.578E+07  1.113E+09  1.899E+03  8.081E+04  1.236E+07  1.643E+06  1.377E+08  3.372E-06
  82   6.047E+03   1.640E+06  1.817E+13  2.273E+07  9.400E+08  1.518E+03  6.471E+04  9.498E+06  1.393E+06  1.122E+08  3.003E-06
  83   5.474E+03   1.623E+06  1.710E+13  2.036E+07  8.012E+08  1.233E+03  5.248E+04  7.352E+06  1.207E+06  9.246E+07  2.781E-06
  84   4.951E+03   1.540E+06  1.591E+13  1.782E+07  6.776E+08  9.815E+02  4.192E+04  5.692E+06  1.018E+06  7.552E+07  2.431E-06
  85   4.481E+03   1.467E+06  1.486E+13  1.567E+07  5.760E+08  7.866E+02  3.367E+04  4.444E+06  8.668E+05  6.233E+07  2.156E-06
  86   4.055E+03   1.374E+06  1.384E+13  1.368E+07  4.897E+08  6.270E+02  2.696E+04  3.487E+06  7.341E+05  5.166E+07  1.882E-06
  87   3.667E+03   1.265E+06  1.288E+13  1.186E+07  4.167E+08  4.975E+02  2.151E+04  2.756E+06  6.209E+05  4.313E+07  1.627E-06
  88   3.316E+03   1.147E+06  1.198E+13  1.022E+07  3.554E+08  3.933E+02  1.715E+04  2.192E+06  5.244E+05  3.631E+07  1.393E-06
  89   3.001E+03   1.044E+06  1.121E+13  8.860E+06  3.051E+08  3.133E+02  1.376E+04  1.763E+06  4.494E+05  3.104E+07  1.219E-06
  90   2.716E+03   9.532E+05  1.052E+13  7.702E+06  2.627E+08  2.507E+02  1.108E+04  1.430E+06  3.903E+05  2.690E+07  1.091E-06
  91   2.457E+03   8.397E+05  9.830E+12  6.598E+06  2.265E+08  1.981E+02  8.860E+03  1.165E+06  3.336E+05  2.340E+07  9.348E-07
  92   2.222E+03   7.400E+05  9.195E+12  5.652E+06  1.954E+08  1.568E+02  7.089E+03  9.557E+05  2.881E+05  2.056E+07  8.166E-07
  93   2.011E+03   6.520E+05  8.614E+12  4.851E+06  1.691E+08  1.245E+02  5.690E+03  7.900E+05  2.510E+05  1.825E+07  7.234E-07
  94   1.819E+03   5.642E+05  8.056E+12  4.130E+06  1.464E+08  9.826E+01  4.552E+03  6.554E+05  2.175E+05  1.628E+07  6.300E-07
  95   1.646E+03   4.870E+05  7.528E+12  3.513E+06  1.267E+08  7.753E+01  3.638E+03  5.461E+05  1.894E+05  1.461E+07  5.541E-07
  96   1.489E+03   4.191E+05  7.025E+12  2.982E+06  1.095E+08  6.108E+01  2.904E+03  4.563E+05  1.654E+05  1.316E+07  4.906E-07
  97   1.347E+03   3.594E+05  6.540E+12  2.524E+06  9.450E+07  4.804E+01  2.313E+03  3.822E+05  1.448E+05  1.189E+07  4.369E-07
  98   1.219E+03   3.070E+05  6.073E+12  2.130E+06  8.138E+07  3.768E+01  1.837E+03  3.205E+05  1.267E+05  1.075E+07  3.898E-07
  99   1.102E+03   2.566E+05  5.622E+12  1.780E+06  7.001E+07  2.930E+01  1.452E+03  2.688E+05  1.096E+05  9.712E+06  3.376E-07
 100   9.972E+02   2.172E+05  5.191E+12  1.493E+06  5.999E+07  2.285E+01  1.147E+03  2.258E+05  9.573E+04  8.785E+06  3.015E-07
 101   9.018E+02   1.800E+05  4.781E+12  1.240E+06  5.139E+07  1.767E+01  9.022E+02  1.894E+05  8.254E+04  7.931E+06  2.606E-07
 102   8.161E+02   1.512E+05  4.393E+12  1.033E+06  4.385E+07  1.370E+01  7.094E+02  1.591E+05  7.189E+04  7.166E+06  2.324E-07
 103   7.384E+02   1.243E+05  4.031E+12  8.540E+05  3.748E+07  1.055E+01  5.560E+02  1.334E+05  6.179E+04  6.464E+06  2.001E-07
 104   6.676E+02   1.001E+05  3.693E+12  6.997E+05  3.206E+07  8.065E+00  4.342E+02  1.117E+05  5.233E+04  5.817E+06  1.662E-07
 105   6.038E+02   8.031E+04  3.381E+12  5.727E+05  2.744E+07  6.163E+00  3.391E+02  9.354E+04  4.425E+04  5.235E+06  1.376E-07
 106   5.463E+02   6.426E+04  3.095E+12  4.684E+05  2.351E+07  4.708E+00  2.648E+02  7.833E+04  3.737E+04  4.713E+06  1.136E-07
 107   4.941E+02   5.032E+04  2.833E+12  3.801E+05  2.019E+07  3.578E+00  2.064E+02  6.551E+04  3.109E+04  4.236E+06  9.027E-08
 108   4.470E+02   3.929E+04  2.595E+12  3.082E+05  1.738E+07  2.720E+00  1.610E+02  5.481E+04  2.582E+04  3.809E+06  7.154E-08
 109   4.044E+02   3.057E+04  2.376E+12  2.498E+05  1.496E+07  2.067E+00  1.256E+02  4.585E+04  2.140E+04  3.425E+06  5.653E-08
 110   3.656E+02   2.325E+04  2.176E+12  2.007E+05  1.292E+07  1.563E+00  9.778E+01  3.834E+04  1.746E+04  3.074E+06  4.309E-08
 111   3.308E+02   1.797E+04  1.994E+12  1.623E+05  1.115E+07  1.187E+00  7.631E+01  3.209E+04  1.441E+04  2.764E+06  3.391E-08
 112   2.991E+02   1.357E+04  1.828E+12  1.302E+05  9.653E+06  8.977E-01  5.943E+01  2.688E+04  1.170E+04  2.481E+06  2.578E-08
 113   2.705E+02   1.020E+04  1.676E+12  1.043E+05  8.371E+06  6.790E-01  4.631E+01  2.256E+04  9.468E+03  2.227E+06  1.959E-08
 114   2.447E+02   7.641E+03  1.539E+12  8.356E+04  7.275E+06  5.142E-01  3.614E+01  1.899E+04  7.649E+03  2.001E+06  1.490E-08
 115   2.213E+02   5.699E+03  1.412E+12  6.683E+04  6.328E+06  3.891E-01  2.820E+01  1.601E+04  6.160E+03  1.797E+06  1.137E-08
 116   2.001E+02   4.231E+03  1.296E+12  5.335E+04  5.507E+06  2.943E-01  2.198E+01  1.354E+04  4.945E+03  1.613E+06  8.702E-09
 117   1.811E+02   3.128E+03  1.191E+12  4.259E+04  4.805E+06  2.229E-01  1.718E+01  1.149E+04  3.959E+03  1.449E+06  6.692E-09
 118   1.638E+02   2.302E+03  1.095E+12  3.394E+04  4.196E+06  1.688E-01  1.342E+01  9.790E+03  3.159E+03  1.300E+06  5.174E-09
 119   1.482E+02   1.687E+03  1.007E+12  2.704E+04  3.670E+06  1.279E-01  1.049E+01  8.380E+03  2.515E+03  1.168E+06  4.028E-09
 120   1.340E+02   1.231E+03  9.257E+11  2.151E+04  3.215E+06  9.689E-02  8.206E+00  7.202E+03  1.997E+03  1.049E+06  3.159E-09
 121   1.212E+02   8.945E+02  8.516E+11  1.711E+04  2.819E+06  7.352E-02  6.431E+00  6.223E+03  1.582E+03  9.413E+05  2.504E-09
 122   1.096E+02   6.490E+02  7.836E+11  1.363E+04  2.478E+06  5.599E-02  5.061E+00  5.415E+03  1.252E+03  8.447E+05  2.015E-09
 123   9.912E+01   4.794E+02  7.213E+11  1.093E+04  2.171E+06  4.274E-02  3.982E+00  4.690E+03  1.004E+03  7.595E+05  1.677E-09
 124   8.963E+01   3.558E+02  6.641E+11  8.822E+03  1.908E+06  3.297E-02  3.169E+00  4.097E+03  8.090E+02  6.828E+05  1.438E-09
 125   8.112E+01   2.696E+02  6.117E+11  7.180E+03  1.672E+06  2.556E-02  2.527E+00  3.557E+03  6.621E+02  6.152E+05  1.292E-09
 126   7.338E+01   2.065E+02  5.636E+11  5.919E+03  1.471E+06  2.014E-02  2.050E+00  3.114E+03  5.477E+02  5.541E+05  1.222E-09
 127   6.637E+01   1.605E+02  5.194E+11  4.967E+03  1.299E+06  1.623E-02  1.700E+00  2.753E+03  4.603E+02  4.992E+05  1.232E-09
 128   6.001E+01   1.278E+02  4.789E+11  4.282E+03  1.154E+06  1.350E-02  1.457E+00  2.461E+03  3.967E+02  4.497E+05  1.334E-09
 129   5.430E+01   1.071E+02  4.415E+11  3.756E+03  1.015E+06  1.132E-02  1.251E+00  2.149E+03  3.541E+02  4.065E+05  1.552E-09
 130   4.908E+01   9.197E+01  4.072E+11  3.444E+03  9.052E+05  1.005E-02  1.142E+00  1.930E+03  3.269E+02  3.669E+05  1.887E-09
 131   4.441E+01   8.319E+01  3.756E+11  3.215E+03  7.998E+05  9.001E-03  1.045E+00  1.692E+03  3.127E+02  3.325E+05  2.380E-09
 132   4.019E+01   7.818E+01  3.465E+11  3.063E+03  7.046E+05  8.206E-03  9.708E-01  1.469E+03  3.086E+02  3.020E+05  3.054E-09
 133   3.635E+01   7.534E+01  3.197E+11  2.995E+03  6.234E+05  7.706E-03  9.292E-01  1.284E+03  3.121E+02  2.744E+05  3.924E-09
 134   3.288E+01   7.451E+01  2.950E+11  2.949E+03  5.495E+05  7.265E-03  8.899E-01  1.111E+03  3.213E+02  2.497E+05  5.030E-09
 135   2.974E+01   7.479E+01  2.725E+11  2.951E+03  4.868E+05  6.984E-03  8.693E-01  9.680E+02  3.358E+02  2.276E+05  6.390E-09
 136   2.692E+01   7.635E+01  2.519E+11  2.947E+03  4.301E+05  6.678E-03  8.422E-01  8.360E+02  3.538E+02  2.080E+05  8.036E-09
 137   2.433E+01   7.772E+01  2.331E+11  2.991E+03  3.841E+05  6.560E-03  8.410E-01  7.372E+02  3.751E+02  1.897E+05  9.912E-09
 138   1.752E+01   8.513E+01  1.822E+11  3.172E+03  2.727E+05  6.386E-03  8.605E-01  5.029E+02  4.639E+02  1.418E+05  1.825E-08
 139   1.251E+01   9.297E+01  1.437E+11  3.477E+03  2.074E+05  6.876E-03  9.824E-01  3.740E+02  5.834E+02  1.062E+05  2.935E-08
 140   8.952E+00   1.070E+02  1.149E+11  3.756E+03  1.633E+05  7.555E-03  1.134E+00  2.839E+02  7.515E+02  8.084E+04  4.549E-08
 141   6.407E+00   1.338E+02  9.287E+10  3.971E+03  1.298E+05  8.303E-03  1.292E+00  2.167E+02  1.010E+03  6.267E+04  7.392E-08
 142   4.584E+00   1.814E+02  7.597E+10  4.092E+03  1.027E+05  9.123E-03  1.457E+00  1.682E+02  1.429E+03  4.942E+04  1.338E-07
 143   3.283E+00   2.649E+02  6.316E+10  4.001E+03  7.863E+04  9.634E-03  1.561E+00  1.313E+02  2.116E+03  3.970E+04  2.854E-07
 144   2.351E+00   3.841E+02  5.296E+10  3.604E+03  5.828E+04  9.475E-03  1.552E+00  1.007E+02  3.090E+03  3.208E+04  6.848E-07
 145   1.684E+00   5.507E+02  4.522E+10  3.317E+03  4.831E+04  1.036E-02  1.723E+00  7.720E+01  4.480E+03  2.603E+04  1.830E-06
 146   1.207E+00   7.666E+02  3.909E+10  3.707E+03  5.018E+04  1.362E-02  2.301E+00  5.654E+01  6.210E+03  2.102E+04  5.139E-06
 147   8.644E-01   1.010E+03  3.389E+10  5.302E+03  5.928E+04  1.920E-02  3.298E+00  3.789E+01  7.951E+03  1.663E+04  1.400E-05
 148   6.189E-01   1.255E+03  2.921E+10  7.534E+03  6.305E+04  2.316E-02  4.042E+00  2.203E+01  9.313E+03  1.269E+04  3.587E-05
 149   4.433E-01   1.423E+03  2.442E+10  8.314E+03  5.126E+04  2.012E-02  3.566E+00  1.053E+01  9.742E+03  9.183E+03  8.028E-05
 150   3.176E-01   1.484E+03  1.965E+10  7.093E+03  3.221E+04  1.357E-02  2.462E+00  4.167E+00  9.499E+03  6.314E+03  1.601E-04
 151   2.273E-01   1.442E+03  1.517E+10  4.509E+03  1.506E+04  7.121E-03  1.339E+00  1.319E+00  8.988E+03  4.169E+03  2.944E-04
 152   1.626E-01   1.336E+03  1.129E+10  1.901E+03  4.664E+03  2.563E-03  5.031E-01  2.992E-01  8.372E+03  2.677E+03  5.051E-04
 153   1.163E-01   1.220E+03  8.242E+09  4.981E+02  8.892E+02  5.803E-04  1.192E-01  4.400E-02  7.581E+03  1.657E+03  7.902E-04
 154   8.334E-02   1.086E+03  5.982E+09  9.828E+01  1.247E+02  9.906E-05  2.144E-02  4.837E-03  6.400E+03  9.609E+02  1.107E-03
 155   5.961E-02   9.434E+02  4.340E+09  2.329E+01  2.035E+01  2.017E-05  4.636E-03  6.028E-04  4.757E+03  4.977E+02  1.464E-03
