Index  TEMPERATURE   DENSITY    PRESSURE    DIFFUSION  
   1    2754.0      2.630E+21  9.998E+05    1.000E+10
   2    2732.0      2.564E+21  9.669E+05    1.000E+10
   3    2710.0      2.500E+21  9.352E+05    1.000E+10
   4    2688.0      2.437E+21  9.042E+05    1.000E+10
   5    2667.0      2.376E+21  8.747E+05    1.000E+10
   6    2645.0      2.317E+21  8.459E+05    1.000E+10
   7    2624.0      2.259E+21  8.182E+05    1.000E+10
   8    2603.0      2.202E+21  7.912E+05    1.000E+10
   9    2582.0      2.147E+21  7.652E+05    1.000E+10
  10    2561.0      2.093E+21  7.399E+05    1.000E+10
  11    2540.0      2.041E+21  7.156E+05    1.000E+10
  12    2520.0      1.990E+21  6.922E+05    1.000E+10
  13    2499.0      1.940E+21  6.692E+05    1.000E+10
  14    2479.0      1.892E+21  6.474E+05    1.000E+10
  15    2458.0      1.845E+21  6.260E+05    1.000E+10
  16    2438.0      1.799E+21  6.054E+05    1.000E+10
  17    2407.0      1.731E+21  5.751E+05    1.000E+10
  18    2377.0      1.667E+21  5.469E+05    1.000E+10
  19    2347.0      1.606E+21  5.203E+05    1.000E+10
  20    2316.0      1.547E+21  4.945E+05    1.000E+10
  21    2286.0      1.491E+21  4.705E+05    1.000E+10
  22    2255.0      1.437E+21  4.473E+05    1.000E+10
  23    2226.0      1.385E+21  4.255E+05    1.000E+10
  24    2197.0      1.335E+21  4.048E+05    1.000E+10
  25    2169.0      1.285E+21  3.847E+05    1.000E+10
  26    2142.0      1.238E+21  3.660E+05    1.000E+10
  27    2117.0      1.191E+21  3.480E+05    1.000E+10
  28    2095.0      1.145E+21  3.311E+05    1.000E+10
  29    2073.0      1.100E+21  3.147E+05    1.000E+10
  30    2054.0      1.056E+21  2.994E+05    2.185E+09
  31    2035.0      1.013E+21  2.845E+05    1.680E+09
  32    2018.0      9.720E+20  2.707E+05    1.290E+09
  33    2002.0      9.319E+20  2.575E+05    9.920E+08
  34    1987.0      8.931E+20  2.449E+05    7.624E+08
  35    1972.0      8.556E+20  2.329E+05    5.857E+08
  36    1959.0      8.195E+20  2.216E+05    4.501E+08
  37    1946.0      7.846E+20  2.107E+05    3.462E+08
  38    1934.0      7.509E+20  2.005E+05    2.661E+08
  39    1922.0      7.184E+20  1.906E+05    2.046E+08
  40    1912.0      6.870E+20  1.813E+05    2.694E+08
  41    1902.0      6.568E+20  1.724E+05    3.327E+08
  42    1893.0      6.277E+20  1.640E+05    3.958E+08
  43    1885.0      5.996E+20  1.560E+05    4.596E+08
  44    1878.0      5.725E+20  1.484E+05    5.222E+08
  45    1871.0      5.464E+20  1.411E+05    5.837E+08
  46    1866.0      5.214E+20  1.343E+05    5.876E+08
  47    1861.0      4.972E+20  1.277E+05    5.919E+08
  48    1857.0      4.740E+20  1.215E+05    5.963E+08
  49    1850.0      4.264E+20  1.089E+05    6.068E+08
  50    1847.0      3.865E+20  9.853E+04    6.230E+08
  51    1844.0      3.502E+20  8.914E+04    6.809E+08
  52    1842.0      3.173E+20  8.067E+04    7.388E+08
  53    1839.0      2.875E+20  7.298E+04    7.966E+08
  54    1837.0      2.605E+20  6.605E+04    8.529E+08
  55    1834.0      2.361E+20  5.977E+04    9.085E+08
  56    1832.0      2.138E+20  5.406E+04    9.647E+08
  57    1831.0      1.936E+20  4.893E+04    1.022E+09
  58    1831.0      1.752E+20  4.428E+04    1.081E+09
  59    1830.0      1.586E+20  4.006E+04    1.142E+09
  60    1830.0      1.435E+20  3.625E+04    1.202E+09
  61    1831.0      1.298E+20  3.280E+04    1.264E+09
  62    1831.0      1.175E+20  2.970E+04    1.327E+09
  63    1831.0      1.063E+20  2.687E+04    1.390E+09
  64    1832.0      9.616E+19  2.432E+04    1.459E+09
  65    1832.0      8.701E+19  2.200E+04    1.555E+09
  66    1831.0      7.876E+19  1.991E+04    1.651E+09
  67    1830.0      7.130E+19  1.801E+04    1.746E+09
  68    1829.0      6.455E+19  1.630E+04    1.803E+09
  69    1828.0      5.845E+19  1.475E+04    1.846E+09
  70    1827.0      5.292E+19  1.335E+04    1.889E+09
  71    1825.0      4.793E+19  1.207E+04    1.960E+09
  72    1823.0      4.342E+19  1.093E+04    2.108E+09
  73    1820.0      3.936E+19  9.888E+03    2.255E+09
  74    1816.0      3.569E+19  8.946E+03    2.400E+09
  75    1811.0      3.238E+19  8.094E+03    2.534E+09
  76    1805.0      2.940E+19  7.325E+03    2.663E+09
  77    1798.0      2.670E+19  6.626E+03    2.791E+09
  78    1790.0      2.426E+19  5.994E+03    2.950E+09
  79    1781.0      2.206E+19  5.423E+03    3.180E+09
  80    1772.0      2.006E+19  4.906E+03    3.406E+09
  81    1763.0      1.824E+19  4.439E+03    3.630E+09
  82    1755.0      1.658E+19  4.016E+03    3.834E+09
  83    1749.0      1.505E+19  3.633E+03    4.037E+09
  84    1745.0      1.365E+19  3.288E+03    4.245E+09
  85    1743.0      1.237E+19  2.976E+03    4.603E+09
  86    1740.0      1.120E+19  2.690E+03    5.210E+09
  87    1737.0      1.015E+19  2.434E+03    5.813E+09
  88    1733.0      9.209E+18  2.203E+03    6.413E+09
  89    1728.0      8.358E+18  1.994E+03    7.480E+09
  90    1721.0      7.591E+18  1.803E+03    8.590E+09
  91    1713.0      6.900E+18  1.631E+03    9.689E+09
  92    1704.0      6.275E+18  1.476E+03    1.082E+10
  93    1694.0      5.710E+18  1.335E+03    1.201E+10
  94    1684.0      5.197E+18  1.208E+03    1.320E+10
  95    1673.0      4.732E+18  1.093E+03    1.436E+10
  96    1663.0      4.308E+18  9.889E+02    1.570E+10
  97    1652.0      3.921E+18  8.941E+02    1.704E+10
  98    1642.0      3.569E+18  8.089E+02    1.837E+10
  99    1633.0      3.248E+18  7.321E+02    1.975E+10
 100    1623.0      2.956E+18  6.622E+02    2.118E+10
 101    1613.0      2.690E+18  5.989E+02    2.260E+10
 102    1603.0      2.449E+18  5.419E+02    2.400E+10
 103    1592.0      2.231E+18  4.902E+02    2.567E+10
 104    1580.0      2.032E+18  4.432E+02    2.731E+10
 105    1568.0      1.853E+18  4.010E+02    2.891E+10
 106    1556.0      1.690E+18  3.630E+02    3.064E+10
 107    1542.0      1.542E+18  3.282E+02    3.246E+10
 108    1528.0      1.407E+18  2.968E+02    3.423E+10
 109    1514.0      1.285E+18  2.685E+02    3.597E+10
 110    1499.0      1.174E+18  2.429E+02    3.781E+10
 111    1484.0      1.072E+18  2.196E+02    3.960E+10
 112    1468.0      9.802E+17  1.986E+02    4.135E+10
 113    1453.0      8.960E+17  1.797E+02    4.305E+10
 114    1437.0      8.190E+17  1.624E+02    4.471E+10
 115    1422.0      7.485E+17  1.469E+02    4.634E+10
 116    1408.0      6.839E+17  1.329E+02    4.793E+10
 117    1394.0      6.247E+17  1.202E+02    4.957E+10
 118    1381.0      5.704E+17  1.087E+02    5.117E+10
 119    1369.0      5.207E+17  9.839E+01    5.278E+10
 120    1357.0      4.750E+17  8.897E+01    5.441E+10
 121    1346.0      4.332E+17  8.048E+01    5.604E+10
 122    1336.0      3.948E+17  7.280E+01    5.769E+10
 123    1326.0      3.597E+17  6.584E+01    5.935E+10
 124    1318.0      3.275E+17  5.958E+01    6.105E+10
 125    1310.0      2.981E+17  5.390E+01    6.277E+10
 126    1302.0      2.712E+17  4.874E+01    6.449E+10
 127    1295.0      2.466E+17  4.408E+01    6.628E+10
 128    1289.0      2.241E+17  3.987E+01    6.812E+10
 129    1284.0      2.036E+17  3.608E+01    6.996E+10
 130    1279.0      1.849E+17  3.264E+01    7.188E+10
 131    1275.0      1.678E+17  2.953E+01    7.392E+10
 132    1272.0      1.522E+17  2.672E+01    7.597E+10
 133    1269.0      1.380E+17  2.417E+01    7.806E+10
 134    1267.0      1.251E+17  2.188E+01    8.016E+10
 135    1266.0      1.133E+17  1.980E+01    8.231E+10
 136    1266.0      1.026E+17  1.793E+01    8.449E+10
 137    1266.0      9.279E+16  1.621E+01    8.673E+10
 138    1267.0      8.391E+16  1.467E+01    8.905E+10
 139    1268.0      7.585E+16  1.328E+01    9.141E+10
 140    1270.0      6.853E+16  1.201E+01    9.382E+10
 141    1273.0      6.189E+16  1.087E+01    9.644E+10
 142    1285.0      4.365E+16  7.742E+00    1.058E+11
 143    1304.0      3.090E+16  5.562E+00    1.165E+11
 144    1334.0      2.174E+16  4.003E+00    1.320E+11
 145    1373.0      1.521E+16  2.883E+00    1.505E+11
 146    1421.0      1.059E+16  2.077E+00    1.702E+11
 147    1474.0      7.367E+15  1.499E+00    1.907E+11
 148    1526.0      5.130E+15  1.081E+00    2.142E+11
 149    1575.0      3.584E+15  7.792E-01    2.381E+11
 150    1619.0      2.511E+15  5.611E-01    2.639E+11
 151    1664.0      1.760E+15  4.042E-01    2.959E+11
 152    1708.0      1.235E+15  2.912E-01    3.302E+11
 153    1751.0      8.670E+14  2.095E-01    3.660E+11
 154    1796.0      6.087E+14  1.509E-01    4.022E+11
 155    1839.0      4.280E+14  1.086E-01    4.331E+11
 156    1877.0      3.095E+14  8.022E-02    4.618E+11
 157    1910.0      2.206E+14  5.817E-02    4.903E+11
 158    1944.0      1.575E+14  4.228E-02    5.161E+11
 159    1986.0      1.122E+14  3.077E-02    5.415E+11
 160    2043.0      7.973E+13  2.249E-02    5.619E+11
 161    2091.0      5.693E+13  1.644E-02    5.728E+11
 162    2129.0      4.086E+13  1.201E-02    5.664E+11
 163    2157.0      2.945E+13  8.770E-03    5.000E+11
 164    2173.0      2.133E+13  6.400E-03    5.000E+11
 165    2189.0      1.546E+13  4.671E-03    5.000E+11
 166    2212.0      1.116E+13  3.409E-03    5.000E+11
 167    2240.0      8.057E+12  2.492E-03    5.000E+11
 168    2271.0      5.815E+12  1.823E-03    5.000E+11
 169    2303.0      4.204E+12  1.337E-03    5.000E+11
 170    2334.0      3.045E+12  9.812E-04    5.000E+11
 171    2370.0      2.207E+12  7.220E-04    5.000E+11
 172    2415.0      1.599E+12  5.330E-04    5.000E+11
 173    2469.0      1.157E+12  3.945E-04    5.000E+11
 174    2536.0      8.381E+11  2.935E-04    5.000E+11
 175    2619.0      6.061E+11  2.192E-04    5.000E+11
 176    2725.0      4.375E+11  1.646E-04    5.000E+11
 177    2859.0      3.147E+11  1.242E-04    5.000E+11
 178    3035.0      2.246E+11  9.412E-05    5.000E+11
 179    3268.0      1.579E+11  7.124E-05    5.000E+11
 180    3589.0      1.082E+11  5.359E-05    5.000E+11
 181    4049.0      7.108E+10  3.974E-05    5.000E+11
 182    4745.0      4.458E+10  2.920E-05    5.000E+11
 183    5891.0      2.646E+10  2.152E-05    5.000E+11
 184    7507.0      1.537E+10  1.593E-05    5.000E+11
 185    8693.0      9.558E+09  1.147E-05    5.000E+11
 186    9688.0      6.072E+09  8.121E-06    5.000E+11
 187   10450.0      3.917E+09  5.652E-06    5.000E+11
 188   10990.0      2.556E+09  3.878E-06    5.000E+11
 189   11350.0      1.682E+09  2.636E-06    5.000E+11
 190   11590.0      1.119E+09  1.791E-06    5.000E+11
 191   11750.0      7.523E+08  1.220E-06    5.000E+11
 192   11840.0      5.109E+08  8.351E-07    5.000E+11
 193   11900.0      3.503E+08  5.755E-07    5.000E+11
 194   11940.0      2.422E+08  3.993E-07    5.000E+11
 195   11960.0      1.687E+08  2.786E-07    5.000E+11
 196   11980.0      1.183E+08  1.956E-07    5.000E+11
 197   11990.0      8.328E+07  1.379E-07    5.000E+11
 198   11990.0      5.892E+07  9.754E-08    5.000E+11